;RAW4.00
[RawHeader]
Date=10/20/2020
EstimatedTotalTime=377
FurtherDQLReading=0
HardwareIndicator=65519
MeasuredTotalTime=3.87467
MeasurementFlag=1
NumberOfMeasuredRanges=1
NumberOfRanges=1
Time=15:44:37

[VarInfo]
Type=USER
Flags=0
Value=

[VarInfo]
Type=SAMPLEID
Flags=0
Value=Commander Sample ID

[VarInfo]
Type=COMMENT
Flags=0
Value=

[VarInfo]
Type=UTF
Flags=0
Value=

[VarInfo]
Type=CREATOR
Flags=0
Value=V5Converter

[VarInfo]
Type=CREATOR_VERSION
Flags=0
Value=1.1.0.7

[HardwareConfiguration]
AbsorptionFactor=9999
ActivateAbsorber=0
Alpha1=1.5406
Alpha2=1.54439
AlphaAverage=1.54184
AlphaRatio=0.5
Analyzer=0
Anode=Cu
AntiScatteringSlit=9999
BeamOpticsFlags=0
Beta=1.39222
BetaRelativeIntensity=0
DeactivateAbsorber=0
DetectorSlit=9999
DivergenceSlit=9999
GoniometerControl=0
GoniometerDiameter=282
GoniometerModel=256
GoniometerStage=7
Monochromator=0
NearSampleSlit=9999
PrimarySollerSlit=9999
SampleChanger=0
SecondSollerSlit=9999
SynchronousAxis=0
ThinFilmAttachment=9999
WaveUnit=A

[RangeHeader]
ActuallyUsedLambda=1.5406
AdditionalDetectorMask=257
DataRecordLength=4
DelayTime=0
DisplayPlaneNumber=0
EstimatedScanTime=625
ExtraParametersMask=0
GeneratorCurrent=10
GeneratorVoltage=30
Increment=0.036477
Increment3=0
NumberOfCompletedData=1372
NumberOfCounts=1
NumberOfDetectors=0
NumberOfDrives=2
NumberOfEncoderDrives=0
NumberOfMeasuredData=1372
NumberOfVaryingParameters=0
RangeStartTime=0
RotationSpeed=8
ScanMode=1
ScanType=Locked Coupled
SimulatedMeasConditions=0
SlitChangerIn=0
SmootingWidth=0
Start=9.99884
Steps=1372
SynchronousRotation=0
Time=41

[VarInfo]
Type=OPTICS_V5
Flags=0
Value=H4sIAAAAAAAEAO29B2AcSZYlJi9tynt/SvVK1+B0oQiAYBMk2JBAEOzBiM3mkuwdaUcjKasqgcplVmVdZhZAzO2dvPfee++999577733ujudTif33/8/XGZkAWz2zkrayZ4hgKrIHz9+fB8/Ih7/Hu8WZXqZ101RLT/7aHe881GaL6fVrFhefPbRuj3f3v30o9/j6PHn1bKoFnmb1yfVYlUt82X7NGuzlN5eNo/eNcVnH83bdvXo7t2rq6vx1b1xVV/c3dvZ2b37e3/x/PV0ni+y7WLZtNlymn9k35rd/NZH6U8WTTEp8xfZIv/sI4eH/eJp3kzrYtXyAJ7U67d5nR7/3q/TL4plkT4tzs/rbNqad57kNY3sy8lP59P2ZdbOP/vo7tP8spjmd33Ifqt+v/LtSZk1jYKwNPGg3P19Vk1RVktqny3fvqyaQjDc+ejo8fG0XWclCPg6L6mPo9MlvZHPHt/tfaNtX7dZu26OvnxrmugHj7/IlrOsrepr08PRzuO7/Q8f/96L8mxGGL5YLyZ5fbS3//hu56PHL+tikdXXb4heb0E9h/Pug4/SL7J37oM9jOJJni1sB/ry47vBp4/9sTfhnz26pF/WxUWxzMrwC+ocfbkZ8WgR+fixeVP//qoBXTsfPv6iWhPJZ3biUmLhR+31iqb6zXqS89eYhQ774bsFvotz3+9dZ9cp2qRfSKPbsNtdn+53vR76XNj7Ms6EXxI60wBSl6D+qE7ftflylpMs/mxz5u6D27DmQZ8zz5rX02y5pAEfnWdlkz++631CcznLj76iIZwXS2DKf5sZ5tnozeEN0/dBE3e3D8Hv+HYTF5mzn5vJeZU3bV1MWX7TZ0Veztxgvsio+yIrP0q9VpGvAyiepHmffkmSCbp8lH61LFpmxZNqeV5crGl8r4qLeXv0Ks9mqfkwo7l7fLfb5DEJey2/PluX5fF0mjfN47vu08dPr5fZopj22wRfPH5aLPIlTOLzYlG0TXrX+6iBhvX+evw0P8/WZfuTWbnOvdHJgPhTYjf8+Oyjk/VHgHXXGzm9z4b0fd9rhufmu9ll/jxfXrTz43I1z3Yj89Nrcqs5+vL8abUmyptZ+kf/8P8fzNPL+XVTTLOSP4+M0MzB7vj+/s6nPA9fLUv0l8+O2npN43N/g4pVuRaJOt3euc9zZj55DJ9ksV4cbe+OHzx88OnDe7v39g8+3bu3e//B6Sf3dkj1mRYkoe/4l+GW2mAzN32N0X09Ltu7mcv2fsRlt5qH/XsP///MZmZ4789nFKdkF/lmRtM2P+K020zF7sH+/585zQzvvTntSQ7XfwObcYMf8djNk3Dv4d7e3v9/ecwN77157FVGX25kMmnxtbjs/+88ZqdgZ3z//1fc1RtYh68kfDxbnlfp8+qimA55/PJ55v31tGhWZXb92UfcJKVPg+D3zVe///Hzl98+Dj/vvpSip5J7Yuxuhc5egI7+1YG8N4BO+Hn3pfdGx3gQHj7BZ50O7HdR3H7/45/8fBN6+vb7IinGRz6d2N8tbPm6i9CT0zfHcVzQ/nYohDG9fEZvkaS2HRxOzaddNE6fn35x+uLNAFWWlJlJ9d3U9XQLmqiy9KbN+6RDdv0mPmWvjt+cfblp0vjtLr06CamH/RRVVwI3Rlhd+djsJ/fYd7OzEzLSZqPVIfCQDvIZo5uS8PJslHW6zIoStgV/NvIia78fZeB+lIH7oXsQMiD+9EcZuP8Xz9Pt3e0fZeB+lIH7YXDZz5sM3Pvy2Y8ycN8wp/0oA/ejDNzPLo/9KAP3owzczwKP/SgD96MM3I8ycD/KwP0oA9dzdn7IGTiTZKNfu/k3k52zCS4zz33qH+GVx3cHv+6/ePTmyRe/P/7/9PT1yavIq+Ydj0MYYT+xRm28v7o5t4/SL+violhmZeeLg48McMnveWm2yMePzZv6N5lTStl1PnzcpZVnML5cnVRPqndfnr+uyjKvQW2bwBSJkC84/RhPbXoN0q1ptkyn1bLNimVKfaXyZcrZxztfJ/cZdN9PfEa+3pT/DJt3Ke8P/PRdmy9n+awzPppJRS+1U7t752c9gcoOQC+B2lEUuzt93XHWvKYpWRJZjs6zsiE58D4xjMG08dOEQ7xw/E6++v337v/+u+ne+H76vX/kb/q+/SXOH8fvINrKCOdVbX79oj+nIUtIO+Um4oug9xgzRBvczA53GUP2xSJMEZna49lPr5v2G5rbnffKjTOqTwtS1hf5chrLV3RbfC0f/x/5m/7/7uXTCI252XsvP39nvLOz+/9qPz8ytFtGkKe/aA0+vInFos1+xGc3TcbO/1+5bCfGYx1LFLFNon3JD6LPMkaAdddjVcv+F487Wm2Y02O8OYixb//ez6fsOwHv52G+/vKL3x///1nzMPcGPcyHP0ce5rPinZL6ZV2t8rq97nqaZdFu8jPpa3EaIm4mvvsAJ9P1HHExu19u9Ci8xl2yD7iX5o3AucSnP/tu5cNbuZW735BbyQyAgcWiDEzgbvq9xeL7+mMDE2zBi5zk1FdaLEnlU1/0S1ulmTAC97+REdDMOZb46/ff3Yk7lb0vb5r+yMz/v8uH/G4xQ+6hnx3mz7+WHV8s/v9ux2mENsvxPiv1ZMj/323H+wO7pbP47Rykj/CRfvHNMtL/X3jn/6+scwsX8NNIahMqZ5ARhZEGO9vovd3Ke4O6fk+/7fnvT//7WfPa7g15bXs7ca/tq+XbZXW1vJXrdrpYtdd93+1mKrE7/n50+vLlm9//5esvnz8//fp0Cv6EIspmxbqJsMO+MMSNAxGHhAxlipRw6rzBlN3A9xvhyzevfq/fn/45Pvm93psffOeT4qCcXJGZ+TslEfYYgjiCJNX74D4zQrawdLKvAwHv84DPmvDPDtvtDLEddf/BbBePGAZJ/ZQmZEqOjA2t3m9awHhPT9+cnrz58n1m5NYSOpi5v7f/4aT6yaKGo/ce1LKT7yLR/fcn2OvT3yv21gcTazAIVS7uEeRnPQi9YZlDc9I/lGWOUOw16RFJikfwk69vzmxHI1Gi/aaFDo2waS4jvHXvZz0mvXf/VjHpvW8oJr3VUsfez+lSx95NSx22wc0MsWGpg0Xy/01h6o+WOr6h8ONHSx0R7vrRUsfPJp/9vF7qiORL/7+81BFzA97PxfxmFju+sXDQDcgFhDbq+LCg8DWCwtdfLygM/UHimWyxKnOyphd5GBPuP+zEhPuypOPFfm8oKV787ISE2tkHxTnv7b+/nBdMiI6T9qoSoUnDLwOfjF7F16DszLS7lX9ugHvzEPPENjTz/TGB39x9ure9t3N/59P9u2dL0iHrBVy0nrPmYN0l/O8a/Ls+Gzgh6sr/bHvp+7dbOdp7Xy9dLBfptLzxtdat1BTT7AOyBq+Pv3j5/PQ9BPbrqaedG3JVPXZ9v5G8/PbZ69+f/3lv/eOY7uixb5F+EspkCmsV2CknKm9IRo9+n1VTlKB753P/AzuPYL6j/wewMv0Co1UAAA==

[PSD]
ActualTwoTheta=9999
FirstUsedChannel=0
FixedPSD=0
PSDOpening=4.98517
PSDType=5

[Drive]
DriveFlags=1
DriveName=2Theta
DriveNumber=2
DriveOffset=0
OffsetIndex=0
OscillationAmplitude=0
OscillationSpeed=0
StartPosition=9.99884

[Drive]
DriveFlags=1
DriveName=Theta
DriveNumber=1
DriveOffset=0
OffsetIndex=0
OscillationAmplitude=0
OscillationSpeed=0
StartPosition=4.99942

[Data]
     Angle,       PSD,
   9.99884,       155,
   10.0353,       120,
   10.0718,       145,
   10.1083,       144,
   10.1447,       118,
   10.1812,       128,
   10.2177,       128,
   10.2542,       151,
   10.2907,       158,
   10.3271,       143,
   10.3636,       153,
   10.4001,       168,
   10.4366,       134,
    10.473,       144,
   10.5095,       127,
    10.546,       142,
   10.5825,       161,
   10.6189,       129,
   10.6554,       126,
   10.6919,       141,
   10.7284,       121,
   10.7649,       117,
   10.8013,       127,
   10.8378,       148,
   10.8743,       167,
   10.9108,       134,
   10.9472,       110,
   10.9837,       144,
   11.0202,       134,
   11.0567,       125,
   11.0932,       152,
   11.1296,       139,
   11.1661,       132,
   11.2026,       155,
   11.2391,       138,
   11.2755,       152,
    11.312,       118,
   11.3485,       120,
    11.385,       147,
   11.4214,       150,
   11.4579,       123,
   11.4944,       137,
   11.5309,       126,
   11.5674,       138,
   11.6038,       151,
   11.6403,       154,
   11.6768,       125,
   11.7133,       119,
   11.7497,       151,
   11.7862,       138,
   11.8227,       149,
   11.8592,       141,
   11.8956,       135,
   11.9321,       163,
   11.9686,       131,
   12.0051,       134,
   12.0416,       134,
    12.078,       130,
   12.1145,       142,
    12.151,       135,
   12.1875,       127,
   12.2239,       127,
   12.2604,       149,
   12.2969,       158,
   12.3334,       157,
   12.3698,       152,
   12.4063,       123,
   12.4428,       130,
   12.4793,       131,
   12.5158,       131,
   12.5522,       126,
   12.5887,       150,
   12.6252,       126,
   12.6617,       142,
   12.6981,       118,
   12.7346,       129,
   12.7711,       143,
   12.8076,       151,
    12.844,       167,
   12.8805,       145,
    12.917,       136,
   12.9535,       154,
     12.99,       160,
   13.0264,       160,
   13.0629,       153,
   13.0994,       162,
   13.1359,       146,
   13.1723,       137,
   13.2088,       128,
   13.2453,       129,
   13.2818,       128,
   13.3182,       128,
   13.3547,       139,
   13.3912,       120,
   13.4277,       129,
   13.4642,       138,
   13.5006,       141,
   13.5371,       145,
   13.5736,       127,
   13.6101,       144,
   13.6465,       136,
    13.683,       129,
   13.7195,       127,
    13.756,       120,
   13.7924,       140,
   13.8289,       155,
   13.8654,       136,
   13.9019,       136,
   13.9384,       143,
   13.9748,       141,
   14.0113,       122,
   14.0478,       138,
   14.0843,       146,
   14.1207,       132,
   14.1572,       135,
   14.1937,       117,
   14.2302,       155,
   14.2666,       168,
   14.3031,       136,
   14.3396,       135,
   14.3761,       140,
   14.4126,       143,
    14.449,       148,
   14.4855,       148,
    14.522,       160,
   14.5585,       159,
   14.5949,       164,
   14.6314,       150,
   14.6679,       142,
   14.7044,       134,
   14.7409,       174,
   14.7773,       176,
   14.8138,       173,
   14.8503,       149,
   14.8868,       159,
   14.9232,       158,
   14.9597,       141,
   14.9962,       156,
   15.0327,       158,
   15.0691,       143,
   15.1056,       158,
   15.1421,       157,
   15.1786,       157,
   15.2151,       162,
   15.2515,       140,
    15.288,       122,
   15.3245,       172,
    15.361,       154,
   15.3974,       134,
   15.4339,       140,
   15.4704,       136,
   15.5069,       144,
   15.5433,       165,
   15.5798,       157,
   15.6163,       160,
   15.6528,       146,
   15.6893,       158,
   15.7257,       154,
   15.7622,       154,
   15.7987,       143,
   15.8352,       152,
   15.8716,       138,
   15.9081,       147,
   15.9446,       166,
   15.9811,       166,
   16.0175,       172,
    16.054,       165,
   16.0905,       161,
    16.127,       164,
   16.1635,       169,
   16.1999,       145,
   16.2364,       162,
   16.2729,       157,
   16.3094,       170,
   16.3458,       170,
   16.3823,       167,
   16.4188,       169,
   16.4553,       176,
   16.4917,       174,
   16.5282,       152,
   16.5647,       186,
   16.6012,       170,
   16.6377,       187,
   16.6741,       173,
   16.7106,       164,
   16.7471,       178,
   16.7836,       187,
     16.82,       164,
   16.8565,       182,
    16.893,       192,
   16.9295,       177,
   16.9659,       170,
   17.0024,       174,
   17.0389,       170,
   17.0754,       160,
   17.1119,       166,
   17.1483,       181,
   17.1848,       165,
   17.2213,       161,
   17.2578,       156,
   17.2942,       141,
   17.3307,       198,
   17.3672,       175,
   17.4037,       193,
   17.4401,       182,
   17.4766,       156,
   17.5131,       156,
   17.5496,       156,
   17.5861,       180,
   17.6225,       167,
    17.659,       199,
   17.6955,       166,
    17.732,       179,
   17.7684,       189,
   17.8049,       173,
   17.8414,       185,
   17.8779,       170,
   17.9143,       177,
   17.9508,       179,
   17.9873,       185,
   18.0238,       188,
   18.0603,       151,
   18.0967,       178,
   18.1332,       176,
   18.1697,       213,
   18.2062,       173,
   18.2426,       184,
   18.2791,       175,
   18.3156,       187,
   18.3521,       180,
   18.3886,       185,
    18.425,       170,
   18.4615,       220,
    18.498,       180,
   18.5345,       193,
   18.5709,       174,
   18.6074,       191,
   18.6439,       183,
   18.6804,       215,
   18.7168,       175,
   18.7533,       184,
   18.7898,       197,
   18.8263,       199,
   18.8628,       215,
   18.8992,       205,
   18.9357,       187,
   18.9722,       221,
   19.0087,       188,
   19.0451,       184,
   19.0816,       169,
   19.1181,       204,
   19.1546,       197,
    19.191,       200,
   19.2275,       177,
    19.264,       203,
   19.3005,       183,
    19.337,       214,
   19.3734,       169,
   19.4099,       204,
   19.4464,       223,
   19.4829,       218,
   19.5193,       228,
   19.5558,       175,
   19.5923,       203,
   19.6288,       202,
   19.6652,       211,
   19.7017,       228,
   19.7382,       226,
   19.7747,       185,
   19.8112,       227,
   19.8476,       190,
   19.8841,       224,
   19.9206,       194,
   19.9571,       221,
   19.9935,       215,
     20.03,       221,
   20.0665,       205,
    20.103,       211,
   20.1394,       193,
   20.1759,       223,
   20.2124,       192,
   20.2489,       219,
   20.2854,       208,
   20.3218,       198,
   20.3583,       222,
   20.3948,       220,
   20.4313,       212,
   20.4677,       210,
   20.5042,       212,
   20.5407,       208,
   20.5772,       222,
   20.6136,       211,
   20.6501,       195,
   20.6866,       201,
   20.7231,       200,
   20.7596,       231,
    20.796,       209,
   20.8325,       230,
    20.869,       203,
   20.9055,       254,
   20.9419,       222,
   20.9784,       233,
   21.0149,       212,
   21.0514,       249,
   21.0878,       241,
   21.1243,       214,
   21.1608,       234,
   21.1973,       196,
   21.2338,       223,
   21.2702,       211,
   21.3067,       230,
   21.3432,       216,
   21.3797,       238,
   21.4161,       221,
   21.4526,       255,
   21.4891,       227,
   21.5256,       241,
    21.562,       216,
   21.5985,       219,
    21.635,       213,
   21.6715,       208,
    21.708,       242,
   21.7444,       229,
   21.7809,       243,
   21.8174,       235,
   21.8539,       251,
   21.8903,       209,
   21.9268,       263,
   21.9633,       285,
   21.9998,       235,
   22.0363,       231,
   22.0727,       212,
   22.1092,       221,
   22.1457,       255,
   22.1822,       246,
   22.2186,       225,
   22.2551,       244,
   22.2916,       277,
   22.3281,       240,
   22.3645,       243,
    22.401,       207,
   22.4375,       220,
    22.474,       224,
   22.5105,       255,
   22.5469,       245,
   22.5834,       241,
   22.6199,       232,
   22.6564,       230,
   22.6928,       252,
   22.7293,       220,
   22.7658,       245,
   22.8023,       246,
   22.8387,       232,
   22.8752,       248,
   22.9117,       251,
   22.9482,       259,
   22.9847,       246,
   23.0211,       243,
   23.0576,       268,
   23.0941,       250,
   23.1306,       246,
    23.167,       237,
   23.2035,       250,
     23.24,       260,
   23.2765,       220,
   23.3129,       215,
   23.3494,       217,
   23.3859,       257,
   23.4224,       264,
   23.4589,       279,
   23.4953,       243,
   23.5318,       259,
   23.5683,       228,
   23.6048,       230,
   23.6412,       254,
   23.6777,       241,
   23.7142,       250,
   23.7507,       252,
   23.7871,       250,
   23.8236,       240,
   23.8601,       255,
   23.8966,       240,
   23.9331,       237,
   23.9695,       282,
    24.006,       249,
   24.0425,       252,
    24.079,       255,
   24.1154,       246,
   24.1519,       249,
   24.1884,       241,
   24.2249,       257,
   24.2613,       247,
   24.2978,       236,
   24.3343,       261,
   24.3708,       260,
   24.4073,       239,
   24.4437,       250,
   24.4802,       226,
   24.5167,       258,
   24.5532,       247,
   24.5896,       265,
   24.6261,       228,
   24.6626,       239,
   24.6991,       241,
   24.7355,       258,
    24.772,       231,
   24.8085,       249,
    24.845,       249,
   24.8815,       258,
   24.9179,       243,
   24.9544,       232,
   24.9909,       232,
   25.0274,       246,
   25.0638,       256,
   25.1003,       238,
   25.1368,       254,
   25.1733,       260,
   25.2097,       268,
   25.2462,       244,
   25.2827,       257,
   25.3192,       227,
   25.3557,       249,
   25.3921,       247,
   25.4286,       242,
   25.4651,       249,
   25.5016,       248,
    25.538,       237,
   25.5745,       240,
    25.611,       272,
   25.6475,       236,
    25.684,       212,
   25.7204,       242,
   25.7569,       224,
   25.7934,       218,
   25.8299,       246,
   25.8663,       227,
   25.9028,       225,
   25.9393,       228,
   25.9758,       239,
   26.0122,       263,
   26.0487,       258,
   26.0852,       250,
   26.1217,       269,
   26.1582,       246,
   26.1946,       243,
   26.2311,       267,
   26.2676,       256,
   26.3041,       262,
   26.3405,       249,
    26.377,       258,
   26.4135,       266,
     26.45,       225,
   26.4864,       275,
   26.5229,       258,
   26.5594,       260,
   26.5959,       283,
   26.6324,       248,
   26.6688,       251,
   26.7053,       250,
   26.7418,       271,
   26.7783,       283,
   26.8147,       264,
   26.8512,       269,
   26.8877,       267,
   26.9242,       255,
   26.9606,       237,
   26.9971,       229,
   27.0336,       263,
   27.0701,       255,
   27.1066,       238,
    27.143,       232,
   27.1795,       251,
    27.216,       252,
   27.2525,       245,
   27.2889,       232,
   27.3254,       248,
   27.3619,       248,
   27.3984,       236,
   27.4348,       229,
   27.4713,       238,
   27.5078,       206,
   27.5443,       234,
   27.5808,       250,
   27.6172,       222,
   27.6537,       216,
   27.6902,       217,
   27.7267,       211,
   27.7631,       203,
   27.7996,       194,
   27.8361,       222,
   27.8726,       214,
    27.909,       209,
   27.9455,       212,
    27.982,       217,
   28.0185,       224,
    28.055,       220,
   28.0914,       235,
   28.1279,       230,
   28.1644,       208,
   28.2009,       230,
   28.2373,       205,
   28.2738,       222,
   28.3103,       212,
   28.3468,       220,
   28.3832,       246,
   28.4197,       204,
   28.4562,       202,
   28.4927,       198,
   28.5292,       215,
   28.5656,       235,
   28.6021,       199,
   28.6386,       221,
   28.6751,       199,
   28.7115,       205,
    28.748,       209,
   28.7845,       209,
    28.821,       220,
   28.8574,       220,
   28.8939,       201,
   28.9304,       220,
   28.9669,       194,
   29.0034,       208,
   29.0398,       226,
   29.0763,       197,
   29.1128,       207,
   29.1493,       193,
   29.1857,       208,
   29.2222,       206,
   29.2587,       250,
   29.2952,       207,
   29.3317,       174,
   29.3681,       198,
   29.4046,       204,
   29.4411,       209,
   29.4776,       219,
    29.514,       182,
   29.5505,       225,
    29.587,       200,
   29.6235,       216,
   29.6599,       194,
   29.6964,       227,
   29.7329,       192,
   29.7694,       191,
   29.8059,       198,
   29.8423,       212,
   29.8788,       190,
   29.9153,       197,
   29.9518,       172,
   29.9882,       227,
   30.0247,       212,
   30.0612,       197,
   30.0977,       213,
   30.1341,       207,
   30.1706,       189,
   30.2071,       242,
   30.2436,       182,
   30.2801,       235,
   30.3165,       231,
    30.353,       223,
   30.3895,       207,
    30.426,       220,
   30.4624,       193,
   30.4989,       221,
   30.5354,       212,
   30.5719,       223,
   30.6083,       256,
   30.6448,       223,
   30.6813,       208,
   30.7178,       227,
   30.7543,       223,
   30.7907,       222,
   30.8272,       203,
   30.8637,       243,
   30.9002,       264,
   30.9366,       244,
   30.9731,       260,
   31.0096,       264,
   31.0461,       226,
   31.0825,       226,
    31.119,       244,
   31.1555,       249,
    31.192,       237,
   31.2285,       247,
   31.2649,       210,
   31.3014,       226,
   31.3379,       225,
   31.3744,       170,
   31.4108,       239,
   31.4473,       202,
   31.4838,       223,
   31.5203,       182,
   31.5567,       210,
   31.5932,       212,
   31.6297,       207,
   31.6662,       187,
   31.7027,       197,
   31.7391,       188,
   31.7756,       182,
   31.8121,       180,
   31.8486,       208,
    31.885,       166,
   31.9215,       178,
    31.958,       165,
   31.9945,       194,
   32.0309,       182,
   32.0674,       168,
   32.1039,       177,
   32.1404,       194,
   32.1769,       188,
   32.2133,       162,
   32.2498,       174,
   32.2863,       147,
   32.3228,       164,
   32.3592,       198,
   32.3957,       180,
   32.4322,       192,
   32.4687,       167,
   32.5051,       138,
   32.5416,       184,
   32.5781,       147,
   32.6146,       176,
   32.6511,       172,
   32.6875,       177,
    32.724,       154,
   32.7605,       167,
    32.797,       170,
   32.8334,       175,
   32.8699,       156,
   32.9064,       158,
   32.9429,       162,
   32.9794,       162,
   33.0158,       175,
   33.0523,       179,
   33.0888,       151,
   33.1253,       141,
   33.1617,       180,
   33.1982,       157,
   33.2347,       138,
   33.2712,       141,
   33.3076,       168,
   33.3441,       154,
   33.3806,       167,
   33.4171,       143,
   33.4536,       166,
     33.49,       134,
   33.5265,       151,
    33.563,       162,
   33.5995,       141,
   33.6359,       162,
   33.6724,       168,
   33.7089,       151,
   33.7454,       186,
   33.7818,       153,
   33.8183,       153,
   33.8548,       158,
   33.8913,       143,
   33.9278,       127,
   33.9642,       171,
   34.0007,       145,
   34.0372,       129,
   34.0737,       152,
   34.1101,       142,
   34.1466,       144,
   34.1831,       140,
   34.2196,       135,
    34.256,       177,
   34.2925,       138,
    34.329,       140,
   34.3655,       141,
    34.402,       163,
   34.4384,       160,
   34.4749,       145,
   34.5114,       168,
   34.5479,       128,
   34.5843,       162,
   34.6208,       134,
   34.6573,       124,
   34.6938,       147,
   34.7302,       132,
   34.7667,       137,
   34.8032,       143,
   34.8397,       142,
   34.8762,       151,
   34.9126,       137,
   34.9491,       144,
   34.9856,       146,
   35.0221,       138,
   35.0585,       148,
    35.095,       157,
   35.1315,       139,
    35.168,       135,
   35.2044,       152,
   35.2409,       141,
   35.2774,       133,
   35.3139,       151,
   35.3504,       122,
   35.3868,       148,
   35.4233,       136,
   35.4598,       134,
   35.4963,       132,
   35.5327,       134,
   35.5692,       140,
   35.6057,       142,
   35.6422,       143,
   35.6786,       123,
   35.7151,       123,
   35.7516,       124,
   35.7881,       127,
   35.8246,       132,
    35.861,       126,
   35.8975,       107,
    35.934,       114,
   35.9705,       109,
   36.0069,       130,
   36.0434,       124,
   36.0799,       115,
   36.1164,       126,
   36.1528,       148,
   36.1893,       122,
   36.2258,       116,
   36.2623,       125,
   36.2988,       121,
   36.3352,       147,
   36.3717,       119,
   36.4082,       119,
   36.4447,       125,
   36.4811,       122,
   36.5176,       122,
   36.5541,       115,
   36.5906,       130,
   36.6271,       129,
   36.6635,       124,
      36.7,       130,
   36.7365,       115,
    36.773,       133,
   36.8094,       112,
   36.8459,       112,
   36.8824,       131,
   36.9189,       119,
   36.9553,       120,
   36.9918,        94,
   37.0283,        91,
   37.0648,       107,
   37.1013,       105,
   37.1377,       102,
   37.1742,       135,
   37.2107,       123,
   37.2472,       105,
   37.2836,       113,
   37.3201,       117,
   37.3566,        99,
   37.3931,       122,
   37.4295,       115,
    37.466,       111,
   37.5025,       121,
    37.539,        92,
   37.5755,       117,
   37.6119,       114,
   37.6484,       122,
   37.6849,       118,
   37.7214,       116,
   37.7578,       110,
   37.7943,       133,
   37.8308,       111,
   37.8673,       119,
   37.9037,       113,
   37.9402,       104,
   37.9767,       118,
   38.0132,       102,
   38.0497,       103,
   38.0861,       113,
   38.1226,        95,
   38.1591,       118,
   38.1956,       112,
    38.232,        99,
   38.2685,       112,
    38.305,       114,
   38.3415,       110,
   38.3779,       108,
   38.4144,       104,
   38.4509,       111,
   38.4874,       128,
   38.5239,       124,
   38.5603,       107,
   38.5968,       120,
   38.6333,       102,
   38.6698,        93,
   38.7062,       129,
   38.7427,       118,
   38.7792,       115,
   38.8157,       106,
   38.8521,       128,
   38.8886,       127,
   38.9251,       125,
   38.9616,       127,
   38.9981,        96,
   39.0345,        97,
    39.071,       108,
   39.1075,       109,
    39.144,       110,
   39.1804,       116,
   39.2169,       107,
   39.2534,       119,
   39.2899,        88,
   39.3263,       109,
   39.3628,       122,
   39.3993,       114,
   39.4358,       113,
   39.4723,       102,
   39.5087,       104,
   39.5452,       115,
   39.5817,       111,
   39.6182,        93,
   39.6546,       117,
   39.6911,       122,
   39.7276,       113,
   39.7641,       123,
   39.8005,       112,
    39.837,        94,
   39.8735,       119,
     39.91,        97,
   39.9465,       109,
   39.9829,       109,
   40.0194,       108,
   40.0559,       105,
   40.0924,       109,
   40.1288,       123,
   40.1653,        96,
   40.2018,       114,
   40.2383,       118,
   40.2748,       113,
   40.3112,       121,
   40.3477,        98,
   40.3842,       101,
   40.4207,        93,
   40.4571,       124,
   40.4936,       114,
   40.5301,       103,
   40.5666,       105,
    40.603,       104,
   40.6395,        90,
    40.676,        94,
   40.7125,       105,
    40.749,       103,
   40.7854,        85,
   40.8219,       110,
   40.8584,        84,
   40.8949,       110,
   40.9313,       108,
   40.9678,       112,
   41.0043,       125,
   41.0408,       111,
   41.0772,       119,
   41.1137,        99,
   41.1502,       107,
   41.1867,       112,
   41.2232,       110,
   41.2596,       113,
   41.2961,        97,
   41.3326,        92,
   41.3691,        99,
   41.4055,       108,
    41.442,       106,
   41.4785,       108,
    41.515,       121,
   41.5514,       110,
   41.5879,       111,
   41.6244,        92,
   41.6609,        96,
   41.6974,        91,
   41.7338,       103,
   41.7703,       109,
   41.8068,       110,
   41.8433,       107,
   41.8797,        94,
   41.9162,        99,
   41.9527,       124,
   41.9892,       113,
   42.0256,       109,
   42.0621,       100,
   42.0986,       107,
   42.1351,        97,
   42.1716,        97,
    42.208,       104,
   42.2445,       110,
    42.281,        85,
   42.3175,       100,
   42.3539,       108,
   42.3904,       104,
   42.4269,       107,
   42.4634,        99,
   42.4998,       113,
   42.5363,       118,
   42.5728,       110,
   42.6093,        98,
   42.6458,        96,
   42.6822,       102,
   42.7187,       121,
   42.7552,       121,
   42.7917,       105,
   42.8281,        92,
   42.8646,        99,
   42.9011,       111,
   42.9376,       110,
    42.974,        92,
   43.0105,       129,
    43.047,       105,
   43.0835,        91,
     43.12,       119,
   43.1564,       111,
   43.1929,        97,
   43.2294,       105,
   43.2659,       109,
   43.3023,        94,
   43.3388,       120,
   43.3753,       106,
   43.4118,       106,
   43.4482,       113,
   43.4847,       104,
   43.5212,       124,
   43.5577,       109,
   43.5942,       115,
   43.6306,       110,
   43.6671,       116,
   43.7036,       108,
   43.7401,       124,
   43.7765,       113,
    43.813,       101,
   43.8495,       121,
    43.886,       108,
   43.9225,       123,
   43.9589,       104,
   43.9954,       147,
   44.0319,       125,
   44.0684,       125,
   44.1048,       113,
   44.1413,       124,
   44.1778,       119,
   44.2143,       114,
   44.2507,       119,
   44.2872,       131,
   44.3237,       125,
   44.3602,       144,
   44.3967,       111,
   44.4331,       140,
   44.4696,       107,
   44.5061,       118,
   44.5426,       134,
    44.579,       119,
   44.6155,       109,
    44.652,       130,
   44.6885,       125,
   44.7249,       111,
   44.7614,       107,
   44.7979,       133,
   44.8344,       127,
   44.8709,       117,
   44.9073,       118,
   44.9438,       130,
   44.9803,       100,
   45.0168,       102,
   45.0532,       114,
   45.0897,       113,
   45.1262,       102,
   45.1627,        96,
   45.1991,       101,
   45.2356,       117,
   45.2721,       104,
   45.3086,       114,
   45.3451,       111,
   45.3815,       109,
    45.418,        95,
   45.4545,        97,
    45.491,        85,
   45.5274,       102,
   45.5639,       101,
   45.6004,        81,
   45.6369,       100,
   45.6733,        89,
   45.7098,       104,
   45.7463,        90,
   45.7828,       100,
   45.8193,        94,
   45.8557,       112,
   45.8922,       108,
   45.9287,        88,
   45.9652,       106,
   46.0016,       102,
   46.0381,       107,
   46.0746,        88,
   46.1111,       104,
   46.1475,       108,
    46.184,        95,
   46.2205,       110,
    46.257,        98,
   46.2935,        91,
   46.3299,       100,
   46.3664,        87,
   46.4029,       103,
   46.4394,        92,
   46.4758,       102,
   46.5123,       108,
   46.5488,       111,
   46.5853,        95,
   46.6217,        96,
   46.6582,       102,
   46.6947,        87,
   46.7312,        88,
   46.7677,       100,
   46.8041,        66,
   46.8406,        98,
   46.8771,       116,
   46.9136,       111,
     46.95,       103,
   46.9865,        96,
    47.023,        81,
   47.0595,        95,
   47.0959,       110,
   47.1324,        86,
   47.1689,       102,
   47.2054,        93,
   47.2419,        90,
   47.2783,        89,
   47.3148,        91,
   47.3513,       115,
   47.3878,        78,
   47.4242,        90,
   47.4607,       100,
   47.4972,        81,
   47.5337,        91,
   47.5702,        87,
   47.6066,        96,
   47.6431,        97,
   47.6796,        99,
   47.7161,        83,
   47.7525,        96,
    47.789,       111,
   47.8255,        80,
    47.862,        96,
   47.8984,        99,
   47.9349,       104,
   47.9714,        90,
   48.0079,        99,
   48.0444,        94,
   48.0808,       101,
   48.1173,        84,
   48.1538,        93,
   48.1903,        97,
   48.2267,       106,
   48.2632,        89,
   48.2997,        87,
   48.3362,       115,
   48.3726,        86,
   48.4091,        84,
   48.4456,        98,
   48.4821,       101,
   48.5186,        93,
    48.555,       100,
   48.5915,        90,
    48.628,        90,
   48.6645,        92,
   48.7009,        91,
   48.7374,        82,
   48.7739,       102,
   48.8104,        88,
   48.8468,        89,
   48.8833,        96,
   48.9198,        93,
   48.9563,        85,
   48.9928,        84,
   49.0292,       106,
   49.0657,        98,
   49.1022,        84,
   49.1387,       104,
   49.1751,        79,
   49.2116,        86,
   49.2481,        90,
   49.2846,       104,
    49.321,        79,
   49.3575,        90,
    49.394,        93,
   49.4305,        86,
    49.467,        89,
   49.5034,        81,
   49.5399,        94,
   49.5764,        97,
   49.6129,        97,
   49.6493,       108,
   49.6858,        93,
   49.7223,        80,
   49.7588,       108,
   49.7952,       102,
   49.8317,        77,
   49.8682,        90,
   49.9047,        90,
   49.9412,        98,
   49.9776,        92,
   50.0141,        97,
   50.0506,        93,
   50.0871,       100,
   50.1235,        87,
     50.16,       101,
   50.1965,       101,
    50.233,        90,
   50.2694,       111,
   50.3059,        83,
   50.3424,        76,
   50.3789,        79,
   50.4154,        86,
   50.4518,        71,
   50.4883,        93,
   50.5248,        83,
   50.5613,       103,
   50.5977,        75,
   50.6342,        89,
   50.6707,        76,
   50.7072,        79,
   50.7436,        91,
   50.7801,        88,
   50.8166,        80,
   50.8531,        83,
   50.8896,        56,
    50.926,        85,
   50.9625,       106,
    50.999,        94,
   51.0355,        78,
   51.0719,       107,
   51.1084,        68,
   51.1449,        91,
   51.1814,        85,
   51.2179,        81,
   51.2543,        74,
   51.2908,       101,
   51.3273,        76,
   51.3638,       109,
   51.4002,        92,
   51.4367,        80,
   51.4732,        83,
   51.5097,       102,
   51.5461,        85,
   51.5826,        87,
   51.6191,        93,
   51.6556,        88,
   51.6921,        93,
   51.7285,        90,
    51.765,        80,
   51.8015,        91,
    51.838,        94,
   51.8744,        79,
   51.9109,        85,
   51.9474,        95,
   51.9839,        86,
   52.0203,       109,
   52.0568,       111,
   52.0933,        87,
   52.1298,        95,
   52.1663,        97,
   52.2027,        96,
   52.2392,       103,
   52.2757,        96,
   52.3122,        94,
   52.3486,        97,
   52.3851,        81,
   52.4216,        92,
   52.4581,       100,
   52.4945,        97,
    52.531,       109,
   52.5675,        87,
    52.604,        87,
   52.6405,       104,
   52.6769,        92,
   52.7134,        92,
   52.7499,        95,
   52.7864,        90,
   52.8228,        92,
   52.8593,        92,
   52.8958,        69,
   52.9323,        90,
   52.9687,        88,
   53.0052,        93,
   53.0417,        93,
   53.0782,       107,
   53.1147,        84,
   53.1511,        94,
   53.1876,       105,
   53.2241,        96,
   53.2606,        84,
    53.297,        94,
   53.3335,        83,
     53.37,        86,
   53.4065,        91,
   53.4429,       100,
   53.4794,        89,
   53.5159,        76,
   53.5524,        82,
   53.5889,        93,
   53.6253,        67,
   53.6618,        95,
   53.6983,        86,
   53.7348,        90,
   53.7712,        96,
   53.8077,        86,
   53.8442,        75,
   53.8807,        89,
   53.9171,        91,
   53.9536,        85,
   53.9901,        84,
   54.0266,        91,
   54.0631,        94,
   54.0995,        96,
    54.136,        85,
   54.1725,        81,
    54.209,        82,
   54.2454,        93,
   54.2819,        96,
   54.3184,        85,
   54.3549,        78,
   54.3913,        90,
   54.4278,       100,
   54.4643,        77,
   54.5008,        84,
   54.5373,       101,
   54.5737,       103,
   54.6102,        89,
   54.6467,       114,
   54.6832,       102,
   54.7196,       110,
   54.7561,        88,
   54.7926,        93,
   54.8291,        96,
   54.8656,        67,
    54.902,       112,
   54.9385,        92,
    54.975,        94,
   55.0115,        83,
   55.0479,       104,
   55.0844,        95,
   55.1209,        82,
   55.1574,        84,
   55.1938,        92,
   55.2303,        81,
   55.2668,        81,
   55.3033,        91,
   55.3398,        84,
   55.3762,        97,
   55.4127,        82,
   55.4492,        92,
   55.4857,        95,
   55.5221,        74,
   55.5586,        97,
   55.5951,        80,
   55.6316,        94,
    55.668,        87,
   55.7045,        99,
    55.741,        81,
   55.7775,        98,
    55.814,        87,
   55.8504,        78,
   55.8869,        98,
   55.9234,        85,
   55.9599,        89,
   55.9963,        88,
   56.0328,        63,
   56.0693,        76,
   56.1058,        94,
   56.1422,        97,
   56.1787,        92,
   56.2152,        88,
   56.2517,        95,
   56.2882,        89,
   56.3246,       103,
   56.3611,        80,
   56.3976,        78,
   56.4341,        97,
   56.4705,        83,
    56.507,        86,
   56.5435,        81,
     56.58,        83,
   56.6164,        79,
   56.6529,        70,
   56.6894,        73,
   56.7259,        88,
   56.7624,        87,
   56.7988,        78,
   56.8353,        88,
   56.8718,        74,
   56.9083,        77,
   56.9447,        95,
   56.9812,        89,
   57.0177,        85,
   57.0542,        89,
   57.0906,        96,
   57.1271,       102,
   57.1636,        78,
   57.2001,        82,
   57.2366,        72,
    57.273,        90,
   57.3095,        91,
    57.346,        82,
   57.3825,        96,
   57.4189,        91,
   57.4554,       101,
   57.4919,        91,
   57.5284,        69,
   57.5648,        92,
   57.6013,       109,
   57.6378,        81,
   57.6743,        93,
   57.7108,        75,
   57.7472,        91,
   57.7837,        79,
   57.8202,        81,
   57.8567,        80,
   57.8931,        84,
   57.9296,       120,
   57.9661,        76,
   58.0026,        92,
    58.039,        81,
   58.0755,        97,
    58.112,        98,
   58.1485,        86,
    58.185,       106,
   58.2214,        79,
   58.2579,        87,
   58.2944,        83,
   58.3309,        84,
   58.3673,       102,
   58.4038,        72,
   58.4403,        83,
   58.4768,        80,
   58.5133,        74,
   58.5497,       106,
   58.5862,       101,
   58.6227,        91,
   58.6592,        88,
   58.6956,        89,
   58.7321,        85,
   58.7686,        92,
   58.8051,        82,
   58.8415,        90,
    58.878,        77,
   58.9145,        75,
    58.951,        72,
   58.9875,        82,
   59.0239,        96,
   59.0604,        87,
   59.0969,        93,
   59.1334,        76,
   59.1698,        81,
   59.2063,        83,
   59.2428,        80,
   59.2793,        77,
   59.3157,        93,
   59.3522,        91,
   59.3887,        82,
   59.4252,        84,
   59.4617,        89,
   59.4981,        91,
   59.5346,        83,
   59.5711,        80,
   59.6076,        73,
    59.644,        78,
   59.6805,        66,
    59.717,        90,
   59.7535,        89,
   59.7899,        96,
   59.8264,        73,
   59.8629,        87,
   59.8994,        84,
   59.9359,        85,
   59.9723,        96,
   60.0088,        80,
