;RAW4.00
[RawHeader]
Date=10/20/2020
EstimatedTotalTime=377
FurtherDQLReading=0
HardwareIndicator=65519
MeasuredTotalTime=3.87377
MeasurementFlag=1
NumberOfMeasuredRanges=1
NumberOfRanges=1
Time=15:52:20

[VarInfo]
Type=USER
Flags=0
Value=

[VarInfo]
Type=SAMPLEID
Flags=0
Value=Commander Sample ID

[VarInfo]
Type=COMMENT
Flags=0
Value=

[VarInfo]
Type=UTF
Flags=0
Value=

[VarInfo]
Type=CREATOR
Flags=0
Value=V5Converter

[VarInfo]
Type=CREATOR_VERSION
Flags=0
Value=1.1.0.7

[HardwareConfiguration]
AbsorptionFactor=9999
ActivateAbsorber=0
Alpha1=1.5406
Alpha2=1.54439
AlphaAverage=1.54184
AlphaRatio=0.5
Analyzer=0
Anode=Cu
AntiScatteringSlit=9999
BeamOpticsFlags=0
Beta=1.39222
BetaRelativeIntensity=0
DeactivateAbsorber=0
DetectorSlit=9999
DivergenceSlit=9999
GoniometerControl=0
GoniometerDiameter=282
GoniometerModel=256
GoniometerStage=7
Monochromator=0
NearSampleSlit=9999
PrimarySollerSlit=9999
SampleChanger=0
SecondSollerSlit=9999
SynchronousAxis=0
ThinFilmAttachment=9999
WaveUnit=A

[RangeHeader]
ActuallyUsedLambda=1.5406
AdditionalDetectorMask=257
DataRecordLength=4
DelayTime=0
DisplayPlaneNumber=0
EstimatedScanTime=625
ExtraParametersMask=0
GeneratorCurrent=10
GeneratorVoltage=30
Increment=0.036477
Increment3=0
NumberOfCompletedData=1372
NumberOfCounts=1
NumberOfDetectors=0
NumberOfDrives=2
NumberOfEncoderDrives=0
NumberOfMeasuredData=1372
NumberOfVaryingParameters=0
RangeStartTime=0
RotationSpeed=8
ScanMode=1
ScanType=Locked Coupled
SimulatedMeasConditions=0
SlitChangerIn=0
SmootingWidth=0
Start=9.99884
Steps=1372
SynchronousRotation=0
Time=41

[VarInfo]
Type=OPTICS_V5
Flags=0
Value=H4sIAAAAAAAEAO29B2AcSZYlJi9tynt/SvVK1+B0oQiAYBMk2JBAEOzBiM3mkuwdaUcjKasqgcplVmVdZhZAzO2dvPfee++999577733ujudTif33/8/XGZkAWz2zkrayZ4hgKrIHz9+fB8/Ih7/Hu8WZXqZ101RLT/7aHe881GaL6fVrFhefPbRuj3f3v30o9/j6PHn1bKoFnmb1yfVYlUt82X7NGuzlN5eNo/eNcVnH83bdvXo7t2rq6vx1b1xVV/c3dvZ2b37e3/x/PV0ni+y7WLZtNlymn9k35rd/NZH6U8WTTEp8xfZIv/sI4eH/eJp3kzrYtXyAJ7U67d5nR7/3q/TL4plkT4tzs/rbNqad57kNY3sy8lP59P2ZdbOP/vo7tP8spjmd33Ifqt+v/LtSZk1jYKwNPGg3P19Vk1RVktqny3fvqyaQjDc+ejo8fG0XWclCPg6L6mPo9MlvZHPHt/tfaNtX7dZu26OvnxrmugHj7/IlrOsrepr08PRzuO7/Q8f/96L8mxGGL5YLyZ5fbS3//hu56PHL+tikdXXb4heb0E9h/Pug4/SL7J37oM9jOJJni1sB/ry47vBp4/9sTfhnz26pF/WxUWxzMrwC+ocfbkZ8WgR+fixeVP//qoBXTsfPv6iWhPJZ3biUmLhR+31iqb6zXqS89eYhQ774bsFvotz3+9dZ9cp2qRfSKPbsNtdn+53vR76XNj7Ms6EXxI60wBSl6D+qE7ftflylpMs/mxz5u6D27DmQZ8zz5rX02y5pAEfnWdlkz++631CcznLj76iIZwXS2DKf5sZ5tnozeEN0/dBE3e3D8Hv+HYTF5mzn5vJeZU3bV1MWX7TZ0Veztxgvsio+yIrP0q9VpGvAyiepHmffkmSCbp8lH61LFpmxZNqeV5crGl8r4qLeXv0Ks9mqfkwo7l7fLfb5DEJey2/PluX5fF0mjfN47vu08dPr5fZopj22wRfPH5aLPIlTOLzYlG0TXrX+6iBhvX+evw0P8/WZfuTWbnOvdHJgPhTYjf8+Oyjk/VHgHXXGzm9z4b0fd9rhufmu9ll/jxfXrTz43I1z3Yj89Nrcqs5+vL8abUmyptZ+kf/8P8fzNPL+XVTTLOSP4+M0MzB7vj+/s6nPA9fLUv0l8+O2npN43N/g4pVuRaJOt3euc9zZj55DJ9ksV4cbe+OHzx88OnDe7v39g8+3bu3e//B6Sf3dkj1mRYkoe/4l+GW2mAzN32N0X09Ltu7mcv2fsRlt5qH/XsP///MZmZ4789nFKdkF/lmRtM2P+K020zF7sH+/585zQzvvTntSQ7XfwObcYMf8djNk3Dv4d7e3v9/ecwN77157FVGX25kMmnxtbjs/+88ZqdgZ3z//1fc1RtYh68kfDxbnlfp8+qimA55/PJ55v31tGhWZXb92UfcJKVPg+D3zVe///Hzl98+Dj/vvpSip5J7Yuxuhc5egI7+1YG8N4BO+Hn3pfdGx3gQHj7BZ50O7HdR3H7/45/8fBN6+vb7IinGRz6d2N8tbPm6i9CT0zfHcVzQ/nYohDG9fEZvkaS2HRxOzaddNE6fn35x+uLNAFWWlJlJ9d3U9XQLmqiy9KbN+6RDdv0mPmWvjt+cfblp0vjtLr06CamH/RRVVwI3Rlhd+djsJ/fYd7OzEzLSZqPVIfCQDvIZo5uS8PJslHW6zIoStgV/NvIia78fZeB+lIH7oXsQMiD+9EcZuP8Xz9Pt3e0fZeB+lIH7YXDZz5sM3Pvy2Y8ycN8wp/0oA/ejDNzPLo/9KAP3owzczwKP/SgD96MM3I8ycD/KwP0oA9dzdn7IGTiTZKNfu/k3k52zCS4zz33qH+GVx3cHv+6/ePTmyRe/P/7/9PT1yavIq+Ydj0MYYT+xRm28v7o5t4/SL+violhmZeeLg48McMnveWm2yMePzZv6N5lTStl1PnzcpZVnML5cnVRPqndfnr+uyjKvQW2bwBSJkC84/RhPbXoN0q1ptkyn1bLNimVKfaXyZcrZxztfJ/cZdN9PfEa+3pT/DJt3Ke8P/PRdmy9n+awzPppJRS+1U7t752c9gcoOQC+B2lEUuzt93XHWvKYpWRJZjs6zsiE58D4xjMG08dOEQ7xw/E6++v337v/+u+ne+H76vX/kb/q+/SXOH8fvINrKCOdVbX79oj+nIUtIO+Um4oug9xgzRBvczA53GUP2xSJMEZna49lPr5v2G5rbnffKjTOqTwtS1hf5chrLV3RbfC0f/x/5m/7/7uXTCI252XsvP39nvLOz+/9qPz8ytFtGkKe/aA0+vInFos1+xGc3TcbO/1+5bCfGYx1LFLFNon3JD6LPMkaAdddjVcv+F487Wm2Y02O8OYixb//ez6fsOwHv52G+/vKL3x///1nzMPcGPcyHP0ce5rPinZL6ZV2t8rq97nqaZdFu8jPpa3EaIm4mvvsAJ9P1HHExu19u9Ci8xl2yD7iX5o3AucSnP/tu5cNbuZW735BbyQyAgcWiDEzgbvq9xeL7+mMDE2zBi5zk1FdaLEnlU1/0S1ulmTAC97+REdDMOZb46/ff3Yk7lb0vb5r+yMz/v8uH/G4xQ+6hnx3mz7+WHV8s/v9ux2mENsvxPiv1ZMj/323H+wO7pbP47Rykj/CRfvHNMtL/X3jn/6+scwsX8NNIahMqZ5ARhZEGO9vovd3Ke4O6fk+/7fnvT//7WfPa7g15bXs7ca/tq+XbZXW1vJXrdrpYtdd93+1mKrE7/n50+vLlm9//5esvnz8//fp0Cv6EIspmxbqJsMO+MMSNAxGHhAxlipRw6rzBlN3A9xvhyzevfq/fn/45Pvm93psffOeT4qCcXJGZ+TslEfYYgjiCJNX74D4zQrawdLKvAwHv84DPmvDPDtvtDLEddf/BbBePGAZJ/ZQmZEqOjA2t3m9awHhPT9+cnrz58n1m5NYSOpi5v7f/4aT6yaKGo/ce1LKT7yLR/fcn2OvT3yv21gcTazAIVS7uEeRnPQi9YZlDc9I/lGWOUOw16RFJikfwk69vzmxHI1Gi/aaFDo2waS4jvHXvZz0mvXf/VjHpvW8oJr3VUsfez+lSx95NSx22wc0MsWGpg0Xy/01h6o+WOr6h8ONHSx0R7vrRUsfPJp/9vF7qiORL/7+81BFzA97PxfxmFju+sXDQDcgFhDbq+LCg8DWCwtdfLygM/UHimWyxKnOyphd5GBPuP+zEhPuypOPFfm8oKV787ISE2tkHxTnv7b+/nBdMiI6T9qoSoUnDLwOfjF7F16DszLS7lX9ugHvzEPPENjTz/TGB39x9ure9t3N/59P9u2dL0iHrBVy0nrPmYN0l/O8a/Ls+Gzgh6sr/bHvp+7dbOdp7Xy9dLBfptLzxtdat1BTT7AOyBq+Pv3j5/PQ9BPbrqaedG3JVPXZ9v5G8/PbZ69+f/3lv/eOY7uixb5F+EspkCmsV2CknKm9IRo9+n1VTlKB753P/AzuPYL6j/wewMv0Co1UAAA==

[PSD]
ActualTwoTheta=9999
FirstUsedChannel=0
FixedPSD=0
PSDOpening=4.98517
PSDType=5

[Drive]
DriveFlags=1
DriveName=2Theta
DriveNumber=2
DriveOffset=0
OffsetIndex=0
OscillationAmplitude=0
OscillationSpeed=0
StartPosition=9.99884

[Drive]
DriveFlags=1
DriveName=Theta
DriveNumber=1
DriveOffset=0
OffsetIndex=0
OscillationAmplitude=0
OscillationSpeed=0
StartPosition=4.99942

[Data]
     Angle,       PSD,
   9.99884,       142,
   10.0353,       155,
   10.0718,       126,
   10.1083,       114,
   10.1447,       122,
   10.1812,       145,
   10.2177,       150,
   10.2542,       136,
   10.2907,       142,
   10.3271,       132,
   10.3636,       133,
   10.4001,       129,
   10.4366,       131,
    10.473,       142,
   10.5095,       158,
    10.546,       161,
   10.5825,       145,
   10.6189,       123,
   10.6554,       161,
   10.6919,       118,
   10.7284,       137,
   10.7649,       142,
   10.8013,       147,
   10.8378,       134,
   10.8743,       130,
   10.9108,       150,
   10.9472,       128,
   10.9837,       141,
   11.0202,       124,
   11.0567,       117,
   11.0932,       136,
   11.1296,       123,
   11.1661,       144,
   11.2026,       122,
   11.2391,       141,
   11.2755,       136,
    11.312,       137,
   11.3485,       152,
    11.385,       137,
   11.4214,       135,
   11.4579,       120,
   11.4944,       160,
   11.5309,       144,
   11.5674,       146,
   11.6038,       148,
   11.6403,       133,
   11.6768,       130,
   11.7133,       167,
   11.7497,       140,
   11.7862,       130,
   11.8227,       118,
   11.8592,       147,
   11.8956,       126,
   11.9321,       137,
   11.9686,       125,
   12.0051,       142,
   12.0416,       134,
    12.078,       167,
   12.1145,       142,
    12.151,       144,
   12.1875,       118,
   12.2239,       149,
   12.2604,       154,
   12.2969,       131,
   12.3334,       137,
   12.3698,       135,
   12.4063,       176,
   12.4428,       152,
   12.4793,       148,
   12.5158,       128,
   12.5522,       157,
   12.5887,       157,
   12.6252,       123,
   12.6617,       153,
   12.6981,       150,
   12.7346,       130,
   12.7711,       158,
   12.8076,       133,
    12.844,       143,
   12.8805,       157,
    12.917,       158,
   12.9535,       147,
     12.99,       143,
   13.0264,       136,
   13.0629,       140,
   13.0994,       132,
   13.1359,       152,
   13.1723,       136,
   13.2088,       146,
   13.2453,       136,
   13.2818,       144,
   13.3182,       159,
   13.3547,       149,
   13.3912,       134,
   13.4277,       119,
   13.4642,       148,
   13.5006,       138,
   13.5371,       142,
   13.5736,       137,
   13.6101,       133,
   13.6465,       158,
    13.683,       136,
   13.7195,       131,
    13.756,       127,
   13.7924,       149,
   13.8289,       147,
   13.8654,       153,
   13.9019,       125,
   13.9384,       139,
   13.9748,       142,
   14.0113,       128,
   14.0478,       151,
   14.0843,       148,
   14.1207,       141,
   14.1572,       148,
   14.1937,       149,
   14.2302,       160,
   14.2666,       137,
   14.3031,       155,
   14.3396,       137,
   14.3761,       150,
   14.4126,       125,
    14.449,       154,
   14.4855,       168,
    14.522,       128,
   14.5585,       164,
   14.5949,       168,
   14.6314,       139,
   14.6679,       147,
   14.7044,       163,
   14.7409,       151,
   14.7773,       129,
   14.8138,       147,
   14.8503,       157,
   14.8868,       138,
   14.9232,       139,
   14.9597,       139,
   14.9962,       136,
   15.0327,       141,
   15.0691,       131,
   15.1056,       146,
   15.1421,       140,
   15.1786,       147,
   15.2151,       137,
   15.2515,       139,
    15.288,       162,
   15.3245,       140,
    15.361,       156,
   15.3974,       148,
   15.4339,       156,
   15.4704,       177,
   15.5069,       142,
   15.5433,       157,
   15.5798,       155,
   15.6163,       176,
   15.6528,       167,
   15.6893,       154,
   15.7257,       138,
   15.7622,       164,
   15.7987,       171,
   15.8352,       135,
   15.8716,       149,
   15.9081,       143,
   15.9446,       164,
   15.9811,       155,
   16.0175,       151,
    16.054,       174,
   16.0905,       173,
    16.127,       143,
   16.1635,       134,
   16.1999,       168,
   16.2364,       168,
   16.2729,       156,
   16.3094,       148,
   16.3458,       165,
   16.3823,       142,
   16.4188,       174,
   16.4553,       163,
   16.4917,       179,
   16.5282,       168,
   16.5647,       149,
   16.6012,       158,
   16.6377,       162,
   16.6741,       130,
   16.7106,       144,
   16.7471,       140,
   16.7836,       165,
     16.82,       184,
   16.8565,       190,
    16.893,       184,
   16.9295,       164,
   16.9659,       153,
   17.0024,       154,
   17.0389,       160,
   17.0754,       143,
   17.1119,       160,
   17.1483,       168,
   17.1848,       161,
   17.2213,       158,
   17.2578,       159,
   17.2942,       171,
   17.3307,       176,
   17.3672,       184,
   17.4037,       149,
   17.4401,       149,
   17.4766,       163,
   17.5131,       174,
   17.5496,       166,
   17.5861,       195,
   17.6225,       184,
    17.659,       166,
   17.6955,       163,
    17.732,       159,
   17.7684,       168,
   17.8049,       172,
   17.8414,       184,
   17.8779,       158,
   17.9143,       193,
   17.9508,       178,
   17.9873,       180,
   18.0238,       185,
   18.0603,       177,
   18.0967,       172,
   18.1332,       180,
   18.1697,       197,
   18.2062,       170,
   18.2426,       187,
   18.2791,       178,
   18.3156,       224,
   18.3521,       216,
   18.3886,       183,
    18.425,       190,
   18.4615,       182,
    18.498,       161,
   18.5345,       176,
   18.5709,       189,
   18.6074,       203,
   18.6439,       177,
   18.6804,       200,
   18.7168,       173,
   18.7533,       213,
   18.7898,       172,
   18.8263,       196,
   18.8628,       190,
   18.8992,       202,
   18.9357,       196,
   18.9722,       183,
   19.0087,       218,
   19.0451,       205,
   19.0816,       230,
   19.1181,       212,
   19.1546,       188,
    19.191,       180,
   19.2275,       208,
    19.264,       211,
   19.3005,       188,
    19.337,       211,
   19.3734,       225,
   19.4099,       177,
   19.4464,       205,
   19.4829,       206,
   19.5193,       200,
   19.5558,       197,
   19.5923,       194,
   19.6288,       202,
   19.6652,       205,
   19.7017,       207,
   19.7382,       212,
   19.7747,       212,
   19.8112,       211,
   19.8476,       202,
   19.8841,       198,
   19.9206,       233,
   19.9571,       208,
   19.9935,       194,
     20.03,       224,
   20.0665,       182,
    20.103,       217,
   20.1394,       213,
   20.1759,       231,
   20.2124,       208,
   20.2489,       222,
   20.2854,       221,
   20.3218,       198,
   20.3583,       215,
   20.3948,       202,
   20.4313,       234,
   20.4677,       206,
   20.5042,       217,
   20.5407,       224,
   20.5772,       223,
   20.6136,       233,
   20.6501,       222,
   20.6866,       235,
   20.7231,       217,
   20.7596,       243,
    20.796,       227,
   20.8325,       216,
    20.869,       217,
   20.9055,       232,
   20.9419,       210,
   20.9784,       214,
   21.0149,       188,
   21.0514,       215,
   21.0878,       233,
   21.1243,       238,
   21.1608,       231,
   21.1973,       207,
   21.2338,       242,
   21.2702,       199,
   21.3067,       239,
   21.3432,       264,
   21.3797,       217,
   21.4161,       234,
   21.4526,       246,
   21.4891,       242,
   21.5256,       247,
    21.562,       226,
   21.5985,       246,
    21.635,       257,
   21.6715,       237,
    21.708,       256,
   21.7444,       250,
   21.7809,       235,
   21.8174,       258,
   21.8539,       245,
   21.8903,       250,
   21.9268,       245,
   21.9633,       255,
   21.9998,       273,
   22.0363,       272,
   22.0727,       247,
   22.1092,       254,
   22.1457,       241,
   22.1822,       236,
   22.2186,       236,
   22.2551,       262,
   22.2916,       239,
   22.3281,       262,
   22.3645,       217,
    22.401,       236,
   22.4375,       246,
    22.474,       236,
   22.5105,       254,
   22.5469,       221,
   22.5834,       215,
   22.6199,       255,
   22.6564,       256,
   22.6928,       238,
   22.7293,       226,
   22.7658,       253,
   22.8023,       249,
   22.8387,       201,
   22.8752,       231,
   22.9117,       235,
   22.9482,       261,
   22.9847,       265,
   23.0211,       232,
   23.0576,       227,
   23.0941,       231,
   23.1306,       250,
    23.167,       237,
   23.2035,       263,
     23.24,       238,
   23.2765,       220,
   23.3129,       232,
   23.3494,       231,
   23.3859,       274,
   23.4224,       239,
   23.4589,       246,
   23.4953,       260,
   23.5318,       258,
   23.5683,       261,
   23.6048,       270,
   23.6412,       262,
   23.6777,       255,
   23.7142,       243,
   23.7507,       218,
   23.7871,       226,
   23.8236,       255,
   23.8601,       258,
   23.8966,       250,
   23.9331,       246,
   23.9695,       246,
    24.006,       228,
   24.0425,       254,
    24.079,       270,
   24.1154,       238,
   24.1519,       235,
   24.1884,       247,
   24.2249,       240,
   24.2613,       260,
   24.2978,       250,
   24.3343,       234,
   24.3708,       263,
   24.4073,       222,
   24.4437,       256,
   24.4802,       259,
   24.5167,       274,
   24.5532,       230,
   24.5896,       230,
   24.6261,       252,
   24.6626,       222,
   24.6991,       215,
   24.7355,       261,
    24.772,       247,
   24.8085,       230,
    24.845,       214,
   24.8815,       246,
   24.9179,       242,
   24.9544,       254,
   24.9909,       234,
   25.0274,       277,
   25.0638,       218,
   25.1003,       252,
   25.1368,       211,
   25.1733,       226,
   25.2097,       225,
   25.2462,       261,
   25.2827,       238,
   25.3192,       277,
   25.3557,       257,
   25.3921,       225,
   25.4286,       208,
   25.4651,       239,
   25.5016,       226,
    25.538,       248,
   25.5745,       235,
    25.611,       215,
   25.6475,       245,
    25.684,       221,
   25.7204,       219,
   25.7569,       239,
   25.7934,       260,
   25.8299,       250,
   25.8663,       254,
   25.9028,       252,
   25.9393,       238,
   25.9758,       247,
   26.0122,       236,
   26.0487,       254,
   26.0852,       254,
   26.1217,       237,
   26.1582,       276,
   26.1946,       262,
   26.2311,       246,
   26.2676,       273,
   26.3041,       264,
   26.3405,       260,
    26.377,       250,
   26.4135,       264,
     26.45,       261,
   26.4864,       281,
   26.5229,       260,
   26.5594,       264,
   26.5959,       248,
   26.6324,       293,
   26.6688,       244,
   26.7053,       252,
   26.7418,       262,
   26.7783,       285,
   26.8147,       292,
   26.8512,       264,
   26.8877,       249,
   26.9242,       284,
   26.9606,       261,
   26.9971,       248,
   27.0336,       237,
   27.0701,       262,
   27.1066,       249,
    27.143,       259,
   27.1795,       242,
    27.216,       232,
   27.2525,       224,
   27.2889,       253,
   27.3254,       227,
   27.3619,       230,
   27.3984,       233,
   27.4348,       232,
   27.4713,       226,
   27.5078,       210,
   27.5443,       243,
   27.5808,       237,
   27.6172,       254,
   27.6537,       222,
   27.6902,       209,
   27.7267,       208,
   27.7631,       200,
   27.7996,       208,
   27.8361,       210,
   27.8726,       216,
    27.909,       213,
   27.9455,       223,
    27.982,       222,
   28.0185,       253,
    28.055,       198,
   28.0914,       225,
   28.1279,       251,
   28.1644,       200,
   28.2009,       211,
   28.2373,       188,
   28.2738,       191,
   28.3103,       210,
   28.3468,       214,
   28.3832,       218,
   28.4197,       229,
   28.4562,       217,
   28.4927,       215,
   28.5292,       197,
   28.5656,       222,
   28.6021,       226,
   28.6386,       209,
   28.6751,       206,
   28.7115,       221,
    28.748,       194,
   28.7845,       232,
    28.821,       240,
   28.8574,       194,
   28.8939,       188,
   28.9304,       222,
   28.9669,       230,
   29.0034,       190,
   29.0398,       207,
   29.0763,       187,
   29.1128,       169,
   29.1493,       188,
   29.1857,       220,
   29.2222,       244,
   29.2587,       240,
   29.2952,       199,
   29.3317,       198,
   29.3681,       234,
   29.4046,       207,
   29.4411,       212,
   29.4776,       195,
    29.514,       189,
   29.5505,       217,
    29.587,       188,
   29.6235,       189,
   29.6599,       202,
   29.6964,       193,
   29.7329,       221,
   29.7694,       200,
   29.8059,       202,
   29.8423,       226,
   29.8788,       212,
   29.9153,       181,
   29.9518,       200,
   29.9882,       206,
   30.0247,       204,
   30.0612,       188,
   30.0977,       198,
   30.1341,       210,
   30.1706,       226,
   30.2071,       190,
   30.2436,       238,
   30.2801,       221,
   30.3165,       194,
    30.353,       190,
   30.3895,       207,
    30.426,       232,
   30.4624,       218,
   30.4989,       223,
   30.5354,       209,
   30.5719,       208,
   30.6083,       220,
   30.6448,       233,
   30.6813,       254,
   30.7178,       224,
   30.7543,       237,
   30.7907,       246,
   30.8272,       225,
   30.8637,       226,
   30.9002,       250,
   30.9366,       254,
   30.9731,       256,
   31.0096,       254,
   31.0461,       257,
   31.0825,       228,
    31.119,       240,
   31.1555,       235,
    31.192,       210,
   31.2285,       223,
   31.2649,       209,
   31.3014,       204,
   31.3379,       227,
   31.3744,       224,
   31.4108,       205,
   31.4473,       207,
   31.4838,       238,
   31.5203,       170,
   31.5567,       209,
   31.5932,       207,
   31.6297,       172,
   31.6662,       193,
   31.7027,       215,
   31.7391,       169,
   31.7756,       184,
   31.8121,       174,
   31.8486,       189,
    31.885,       173,
   31.9215,       188,
    31.958,       161,
   31.9945,       205,
   32.0309,       162,
   32.0674,       147,
   32.1039,       184,
   32.1404,       173,
   32.1769,       162,
   32.2133,       148,
   32.2498,       164,
   32.2863,       189,
   32.3228,       176,
   32.3592,       180,
   32.3957,       181,
   32.4322,       162,
   32.4687,       164,
   32.5051,       146,
   32.5416,       168,
   32.5781,       173,
   32.6146,       175,
   32.6511,       171,
   32.6875,       160,
    32.724,       160,
   32.7605,       166,
    32.797,       149,
   32.8334,       175,
   32.8699,       189,
   32.9064,       167,
   32.9429,       171,
   32.9794,       162,
   33.0158,       158,
   33.0523,       177,
   33.0888,       166,
   33.1253,       170,
   33.1617,       157,
   33.1982,       157,
   33.2347,       158,
   33.2712,       183,
   33.3076,       172,
   33.3441,       162,
   33.3806,       158,
   33.4171,       162,
   33.4536,       134,
     33.49,       176,
   33.5265,       177,
    33.563,       184,
   33.5995,       141,
   33.6359,       151,
   33.6724,       137,
   33.7089,       173,
   33.7454,       168,
   33.7818,       185,
   33.8183,       145,
   33.8548,       176,
   33.8913,       150,
   33.9278,       154,
   33.9642,       147,
   34.0007,       153,
   34.0372,       161,
   34.0737,       162,
   34.1101,       160,
   34.1466,       158,
   34.1831,       151,
   34.2196,       159,
    34.256,       132,
   34.2925,       145,
    34.329,       118,
   34.3655,       111,
    34.402,       138,
   34.4384,       166,
   34.4749,       131,
   34.5114,       125,
   34.5479,       128,
   34.5843,       150,
   34.6208,       142,
   34.6573,       149,
   34.6938,       166,
   34.7302,       156,
   34.7667,       141,
   34.8032,       136,
   34.8397,       140,
   34.8762,       126,
   34.9126,       134,
   34.9491,       128,
   34.9856,       127,
   35.0221,       143,
   35.0585,       146,
    35.095,       141,
   35.1315,       128,
    35.168,       147,
   35.2044,       117,
   35.2409,       140,
   35.2774,       133,
   35.3139,       147,
   35.3504,       153,
   35.3868,       148,
   35.4233,       110,
   35.4598,       133,
   35.4963,       104,
   35.5327,       132,
   35.5692,       138,
   35.6057,       145,
   35.6422,       133,
   35.6786,       138,
   35.7151,       110,
   35.7516,       123,
   35.7881,       117,
   35.8246,       125,
    35.861,       141,
   35.8975,       126,
    35.934,       115,
   35.9705,       134,
   36.0069,       131,
   36.0434,       131,
   36.0799,       130,
   36.1164,       120,
   36.1528,       116,
   36.1893,       137,
   36.2258,       114,
   36.2623,       115,
   36.2988,       114,
   36.3352,       112,
   36.3717,       123,
   36.4082,       117,
   36.4447,       122,
   36.4811,       127,
   36.5176,       116,
   36.5541,       108,
   36.5906,       113,
   36.6271,       104,
   36.6635,       123,
      36.7,       136,
   36.7365,       133,
    36.773,       129,
   36.8094,       113,
   36.8459,       125,
   36.8824,       118,
   36.9189,       131,
   36.9553,       102,
   36.9918,       109,
   37.0283,       111,
   37.0648,       139,
   37.1013,       103,
   37.1377,        94,
   37.1742,       127,
   37.2107,       112,
   37.2472,       132,
   37.2836,       113,
   37.3201,       127,
   37.3566,       116,
   37.3931,       109,
   37.4295,       115,
    37.466,       113,
   37.5025,       130,
    37.539,       104,
   37.5755,       126,
   37.6119,       112,
   37.6484,       116,
   37.6849,       119,
   37.7214,       115,
   37.7578,       123,
   37.7943,        96,
   37.8308,       126,
   37.8673,       119,
   37.9037,       113,
   37.9402,       122,
   37.9767,       123,
   38.0132,       105,
   38.0497,       116,
   38.0861,       114,
   38.1226,       108,
   38.1591,       119,
   38.1956,       106,
    38.232,       112,
   38.2685,       112,
    38.305,       127,
   38.3415,       120,
   38.3779,       110,
   38.4144,       120,
   38.4509,       121,
   38.4874,       103,
   38.5239,       114,
   38.5603,       100,
   38.5968,       135,
   38.6333,        96,
   38.6698,       109,
   38.7062,       127,
   38.7427,       101,
   38.7792,       103,
   38.8157,        99,
   38.8521,       105,
   38.8886,        87,
   38.9251,       112,
   38.9616,       120,
   38.9981,        96,
   39.0345,        93,
    39.071,        98,
   39.1075,       113,
    39.144,       109,
   39.1804,       103,
   39.2169,       100,
   39.2534,       106,
   39.2899,       106,
   39.3263,        92,
   39.3628,       101,
   39.3993,        99,
   39.4358,        92,
   39.4723,        91,
   39.5087,       116,
   39.5452,       104,
   39.5817,       101,
   39.6182,       112,
   39.6546,       117,
   39.6911,       112,
   39.7276,       105,
   39.7641,       111,
   39.8005,       106,
    39.837,       121,
   39.8735,       123,
     39.91,        93,
   39.9465,       116,
   39.9829,       107,
   40.0194,       132,
   40.0559,       105,
   40.0924,       106,
   40.1288,       115,
   40.1653,       105,
   40.2018,        90,
   40.2383,        98,
   40.2748,       108,
   40.3112,        93,
   40.3477,        94,
   40.3842,        92,
   40.4207,        92,
   40.4571,       111,
   40.4936,       105,
   40.5301,       115,
   40.5666,       102,
    40.603,        98,
   40.6395,       119,
    40.676,       110,
   40.7125,        93,
    40.749,       111,
   40.7854,       111,
   40.8219,        89,
   40.8584,       106,
   40.8949,       108,
   40.9313,       121,
   40.9678,       107,
   41.0043,       101,
   41.0408,       103,
   41.0772,       106,
   41.1137,       105,
   41.1502,       114,
   41.1867,       109,
   41.2232,       118,
   41.2596,       108,
   41.2961,        96,
   41.3326,       122,
   41.3691,       104,
   41.4055,        87,
    41.442,       128,
   41.4785,       106,
    41.515,        91,
   41.5514,       107,
   41.5879,       117,
   41.6244,        98,
   41.6609,       107,
   41.6974,       106,
   41.7338,       108,
   41.7703,       100,
   41.8068,       107,
   41.8433,       113,
   41.8797,        97,
   41.9162,       119,
   41.9527,       109,
   41.9892,       121,
   42.0256,       100,
   42.0621,       116,
   42.0986,       111,
   42.1351,       114,
   42.1716,       112,
    42.208,       109,
   42.2445,       105,
    42.281,       119,
   42.3175,       111,
   42.3539,       116,
   42.3904,        92,
   42.4269,       108,
   42.4634,       100,
   42.4998,       100,
   42.5363,       111,
   42.5728,        95,
   42.6093,       114,
   42.6458,       112,
   42.6822,       119,
   42.7187,       100,
   42.7552,        85,
   42.7917,       108,
   42.8281,       117,
   42.8646,       112,
   42.9011,       101,
   42.9376,        99,
    42.974,       114,
   43.0105,       110,
    43.047,       128,
   43.0835,       108,
     43.12,       108,
   43.1564,        94,
   43.1929,        93,
   43.2294,       101,
   43.2659,       112,
   43.3023,        94,
   43.3388,       110,
   43.3753,       114,
   43.4118,       103,
   43.4482,        98,
   43.4847,       122,
   43.5212,       108,
   43.5577,       114,
   43.5942,        99,
   43.6306,        94,
   43.6671,       110,
   43.7036,       119,
   43.7401,       113,
   43.7765,       109,
    43.813,       131,
   43.8495,       111,
    43.886,       112,
   43.9225,       109,
   43.9589,       130,
   43.9954,       117,
   44.0319,       124,
   44.0684,       124,
   44.1048,       114,
   44.1413,       115,
   44.1778,       103,
   44.2143,       110,
   44.2507,       115,
   44.2872,       134,
   44.3237,       142,
   44.3602,       111,
   44.3967,       135,
   44.4331,       132,
   44.4696,       128,
   44.5061,       128,
   44.5426,       110,
    44.579,       132,
   44.6155,       114,
    44.652,       155,
   44.6885,       118,
   44.7249,       133,
   44.7614,       135,
   44.7979,       111,
   44.8344,       130,
   44.8709,       105,
   44.9073,       114,
   44.9438,       112,
   44.9803,       110,
   45.0168,       126,
   45.0532,        93,
   45.0897,       141,
   45.1262,        99,
   45.1627,        95,
   45.1991,       106,
   45.2356,       112,
   45.2721,       110,
   45.3086,        86,
   45.3451,        99,
   45.3815,       118,
    45.418,       104,
   45.4545,       100,
    45.491,       109,
   45.5274,       111,
   45.5639,       119,
   45.6004,        97,
   45.6369,        80,
   45.6733,        91,
   45.7098,       109,
   45.7463,        92,
   45.7828,        87,
   45.8193,       104,
   45.8557,       101,
   45.8922,        91,
   45.9287,        91,
   45.9652,       112,
   46.0016,        94,
   46.0381,        88,
   46.0746,        85,
   46.1111,        86,
   46.1475,       112,
    46.184,        81,
   46.2205,       114,
    46.257,        81,
   46.2935,       118,
   46.3299,        99,
   46.3664,        88,
   46.4029,        86,
   46.4394,        92,
   46.4758,        95,
   46.5123,        94,
   46.5488,       101,
   46.5853,        98,
   46.6217,       107,
   46.6582,       103,
   46.6947,        91,
   46.7312,        79,
   46.7677,       107,
   46.8041,        95,
   46.8406,        80,
   46.8771,       102,
   46.9136,        76,
     46.95,        89,
   46.9865,        75,
    47.023,        86,
   47.0595,       104,
   47.0959,        74,
   47.1324,        88,
   47.1689,        98,
   47.2054,       103,
   47.2419,        89,
   47.2783,        94,
   47.3148,        86,
   47.3513,        95,
   47.3878,       100,
   47.4242,       107,
   47.4607,        98,
   47.4972,        89,
   47.5337,        95,
   47.5702,        98,
   47.6066,       110,
   47.6431,        95,
   47.6796,       108,
   47.7161,        81,
   47.7525,        88,
    47.789,        75,
   47.8255,        97,
    47.862,        80,
   47.8984,       105,
   47.9349,       100,
   47.9714,        95,
   48.0079,        86,
   48.0444,       100,
   48.0808,        90,
   48.1173,        88,
   48.1538,        76,
   48.1903,       102,
   48.2267,        99,
   48.2632,        92,
   48.2997,        89,
   48.3362,        81,
   48.3726,        78,
   48.4091,        91,
   48.4456,        90,
   48.4821,        93,
   48.5186,        73,
    48.555,       108,
   48.5915,        88,
    48.628,        84,
   48.6645,        97,
   48.7009,       105,
   48.7374,       107,
   48.7739,        88,
   48.8104,        99,
   48.8468,        93,
   48.8833,        95,
   48.9198,        91,
   48.9563,        94,
   48.9928,        89,
   49.0292,        81,
   49.0657,        91,
   49.1022,        92,
   49.1387,        99,
   49.1751,       105,
   49.2116,        95,
   49.2481,        88,
   49.2846,       100,
    49.321,        78,
   49.3575,        79,
    49.394,        81,
   49.4305,        81,
    49.467,        87,
   49.5034,       109,
   49.5399,        86,
   49.5764,       100,
   49.6129,        94,
   49.6493,        95,
   49.6858,        81,
   49.7223,        91,
   49.7588,        81,
   49.7952,        74,
   49.8317,       105,
   49.8682,        86,
   49.9047,        89,
   49.9412,        99,
   49.9776,        95,
   50.0141,        85,
   50.0506,        90,
   50.0871,        92,
   50.1235,        88,
     50.16,        97,
   50.1965,        80,
    50.233,        83,
   50.2694,        98,
   50.3059,        99,
   50.3424,        84,
   50.3789,        94,
   50.4154,        89,
   50.4518,        91,
   50.4883,        88,
   50.5248,        83,
   50.5613,        93,
   50.5977,        88,
   50.6342,        92,
   50.6707,        71,
   50.7072,        84,
   50.7436,        81,
   50.7801,        89,
   50.8166,        82,
   50.8531,        86,
   50.8896,        78,
    50.926,        84,
   50.9625,        86,
    50.999,        78,
   51.0355,        84,
   51.0719,        84,
   51.1084,        89,
   51.1449,        88,
   51.1814,        96,
   51.2179,       106,
   51.2543,       101,
   51.2908,        97,
   51.3273,        89,
   51.3638,        91,
   51.4002,        97,
   51.4367,       102,
   51.4732,        84,
   51.5097,        85,
   51.5461,        86,
   51.5826,        87,
   51.6191,        90,
   51.6556,        85,
   51.6921,        86,
   51.7285,        99,
    51.765,        75,
   51.8015,       102,
    51.838,        89,
   51.8744,        80,
   51.9109,        82,
   51.9474,        98,
   51.9839,        92,
   52.0203,        92,
   52.0568,       107,
   52.0933,        95,
   52.1298,        96,
   52.1663,        70,
   52.2027,        81,
   52.2392,        87,
   52.2757,        84,
   52.3122,       102,
   52.3486,        80,
   52.3851,       108,
   52.4216,       112,
   52.4581,        89,
   52.4945,        93,
    52.531,        99,
   52.5675,       100,
    52.604,       103,
   52.6405,        97,
   52.6769,        87,
   52.7134,        98,
   52.7499,       112,
   52.7864,       116,
   52.8228,       110,
   52.8593,       103,
   52.8958,        95,
   52.9323,        78,
   52.9687,        84,
   53.0052,        96,
   53.0417,        90,
   53.0782,        93,
   53.1147,        95,
   53.1511,       107,
   53.1876,       100,
   53.2241,        77,
   53.2606,        95,
    53.297,        98,
   53.3335,        92,
     53.37,        80,
   53.4065,        97,
   53.4429,        91,
   53.4794,        83,
   53.5159,        91,
   53.5524,        62,
   53.5889,        83,
   53.6253,        83,
   53.6618,        85,
   53.6983,        92,
   53.7348,       101,
   53.7712,        87,
   53.8077,        78,
   53.8442,        92,
   53.8807,        96,
   53.9171,       102,
   53.9536,        95,
   53.9901,        87,
   54.0266,       108,
   54.0631,       101,
   54.0995,        90,
    54.136,        67,
   54.1725,        98,
    54.209,        89,
   54.2454,        93,
   54.2819,        79,
   54.3184,        98,
   54.3549,        89,
   54.3913,        81,
   54.4278,        90,
   54.4643,        83,
   54.5008,        89,
   54.5373,        95,
   54.5737,        89,
   54.6102,        93,
   54.6467,        79,
   54.6832,        81,
   54.7196,       105,
   54.7561,        86,
   54.7926,        97,
   54.8291,        91,
   54.8656,        91,
    54.902,       101,
   54.9385,        87,
    54.975,        92,
   55.0115,        87,
   55.0479,        78,
   55.0844,       106,
   55.1209,        89,
   55.1574,        87,
   55.1938,        91,
   55.2303,        98,
   55.2668,        95,
   55.3033,        83,
   55.3398,        91,
   55.3762,        91,
   55.4127,        77,
   55.4492,        95,
   55.4857,        96,
   55.5221,        86,
   55.5586,        93,
   55.5951,        98,
   55.6316,        97,
    55.668,        71,
   55.7045,        95,
    55.741,        87,
   55.7775,        85,
    55.814,        86,
   55.8504,        90,
   55.8869,        88,
   55.9234,        91,
   55.9599,        89,
   55.9963,        84,
   56.0328,        81,
   56.0693,        70,
   56.1058,        90,
   56.1422,        86,
   56.1787,        80,
   56.2152,        92,
   56.2517,        89,
   56.2882,        73,
   56.3246,        74,
   56.3611,        99,
   56.3976,        81,
   56.4341,        79,
   56.4705,        80,
    56.507,        78,
   56.5435,        84,
     56.58,        94,
   56.6164,        91,
   56.6529,        74,
   56.6894,        90,
   56.7259,        81,
   56.7624,       102,
   56.7988,        79,
   56.8353,        69,
   56.8718,       100,
   56.9083,        99,
   56.9447,        85,
   56.9812,        80,
   57.0177,        76,
   57.0542,        80,
   57.0906,        80,
   57.1271,        99,
   57.1636,        88,
   57.2001,        84,
   57.2366,        99,
    57.273,        82,
   57.3095,        89,
    57.346,        93,
   57.3825,       101,
   57.4189,        89,
   57.4554,        89,
   57.4919,        93,
   57.5284,        84,
   57.5648,        99,
   57.6013,        91,
   57.6378,        89,
   57.6743,        88,
   57.7108,        79,
   57.7472,        86,
   57.7837,        91,
   57.8202,        95,
   57.8567,        76,
   57.8931,        63,
   57.9296,        85,
   57.9661,        90,
   58.0026,        85,
    58.039,        86,
   58.0755,       109,
    58.112,        89,
   58.1485,        89,
    58.185,        94,
   58.2214,        68,
   58.2579,        87,
   58.2944,        89,
   58.3309,        75,
   58.3673,        77,
   58.4038,        80,
   58.4403,        80,
   58.4768,        86,
   58.5133,        73,
   58.5497,        69,
   58.5862,        74,
   58.6227,        84,
   58.6592,        89,
   58.6956,        88,
   58.7321,        98,
   58.7686,        73,
   58.8051,        79,
   58.8415,        88,
    58.878,        98,
   58.9145,        84,
    58.951,        77,
   58.9875,        95,
   59.0239,        90,
   59.0604,        83,
   59.0969,        81,
   59.1334,        99,
   59.1698,        96,
   59.2063,        73,
   59.2428,       103,
   59.2793,        90,
   59.3157,        81,
   59.3522,        83,
   59.3887,        87,
   59.4252,        75,
   59.4617,        78,
   59.4981,        94,
   59.5346,        79,
   59.5711,        90,
   59.6076,        88,
    59.644,        87,
   59.6805,        77,
    59.717,        70,
   59.7535,        90,
   59.7899,        85,
   59.8264,       100,
   59.8629,        87,
   59.8994,        81,
   59.9359,        89,
   59.9723,        80,
   60.0088,        83,
