;RAW4.00
[RawHeader]
Date=10/20/2020
EstimatedTotalTime=377
FurtherDQLReading=0
HardwareIndicator=65519
MeasuredTotalTime=3.87707
MeasurementFlag=1
NumberOfMeasuredRanges=1
NumberOfRanges=1
Time=15:36:50

[VarInfo]
Type=USER
Flags=0
Value=

[VarInfo]
Type=SAMPLEID
Flags=0
Value=Commander Sample ID

[VarInfo]
Type=COMMENT
Flags=0
Value=

[VarInfo]
Type=UTF
Flags=0
Value=

[VarInfo]
Type=CREATOR
Flags=0
Value=V5Converter

[VarInfo]
Type=CREATOR_VERSION
Flags=0
Value=1.1.0.7

[HardwareConfiguration]
AbsorptionFactor=9999
ActivateAbsorber=0
Alpha1=1.5406
Alpha2=1.54439
AlphaAverage=1.54184
AlphaRatio=0.5
Analyzer=0
Anode=Cu
AntiScatteringSlit=9999
BeamOpticsFlags=0
Beta=1.39222
BetaRelativeIntensity=0
DeactivateAbsorber=0
DetectorSlit=9999
DivergenceSlit=9999
GoniometerControl=0
GoniometerDiameter=282
GoniometerModel=256
GoniometerStage=7
Monochromator=0
NearSampleSlit=9999
PrimarySollerSlit=9999
SampleChanger=0
SecondSollerSlit=9999
SynchronousAxis=0
ThinFilmAttachment=9999
WaveUnit=A

[RangeHeader]
ActuallyUsedLambda=1.5406
AdditionalDetectorMask=257
DataRecordLength=4
DelayTime=0
DisplayPlaneNumber=0
EstimatedScanTime=625
ExtraParametersMask=0
GeneratorCurrent=10
GeneratorVoltage=30
Increment=0.036477
Increment3=0
NumberOfCompletedData=1372
NumberOfCounts=1
NumberOfDetectors=0
NumberOfDrives=2
NumberOfEncoderDrives=0
NumberOfMeasuredData=1372
NumberOfVaryingParameters=0
RangeStartTime=0
RotationSpeed=8
ScanMode=1
ScanType=Locked Coupled
SimulatedMeasConditions=0
SlitChangerIn=0
SmootingWidth=0
Start=9.99884
Steps=1372
SynchronousRotation=0
Time=41

[VarInfo]
Type=OPTICS_V5
Flags=0
Value=H4sIAAAAAAAEAO29B2AcSZYlJi9tynt/SvVK1+B0oQiAYBMk2JBAEOzBiM3mkuwdaUcjKasqgcplVmVdZhZAzO2dvPfee++999577733ujudTif33/8/XGZkAWz2zkrayZ4hgKrIHz9+fB8/Ih7/Hu8WZXqZ101RLT/7aHe881GaL6fVrFhefPbRuj3f3v30o9/j6PHn1bKoFnmb1yfVYlUt82X7NGuzlN5eNo/eNcVnH83bdvXo7t2rq6vx1b1xVV/c3dvZ2b37e3/x/PV0ni+y7WLZtNlymn9k35rd/NZH6U8WTTEp8xfZIv/sI4eH/eJp3kzrYtXyAJ7U67d5nR7/3q/TL4plkT4tzs/rbNqad57kNY3sy8lP59P2ZdbOP/vo7tP8spjmd33Ifqt+v/LtSZk1jYKwNPGg3P19Vk1RVktqny3fvqyaQjDc+ejo8fG0XWclCPg6L6mPo9MlvZHPHt/tfaNtX7dZu26OvnxrmugHj7/IlrOsrepr08PRzuO7/Q8f/96L8mxGGL5YLyZ5fbS3//hu56PHL+tikdXXb4heb0E9h/Pug4/SL7J37oM9jOJJni1sB/ry47vBp4/9sTfhnz26pF/WxUWxzMrwC+ocfbkZ8WgR+fixeVP//qoBXTsfPv6iWhPJZ3biUmLhR+31iqb6zXqS89eYhQ774bsFvotz3+9dZ9cp2qRfSKPbsNtdn+53vR76XNj7Ms6EXxI60wBSl6D+qE7ftflylpMs/mxz5u6D27DmQZ8zz5rX02y5pAEfnWdlkz++631CcznLj76iIZwXS2DKf5sZ5tnozeEN0/dBE3e3D8Hv+HYTF5mzn5vJeZU3bV1MWX7TZ0Veztxgvsio+yIrP0q9VpGvAyiepHmffkmSCbp8lH61LFpmxZNqeV5crGl8r4qLeXv0Ks9mqfkwo7l7fLfb5DEJey2/PluX5fF0mjfN47vu08dPr5fZopj22wRfPH5aLPIlTOLzYlG0TXrX+6iBhvX+evw0P8/WZfuTWbnOvdHJgPhTYjf8+Oyjk/VHgHXXGzm9z4b0fd9rhufmu9ll/jxfXrTz43I1z3Yj89Nrcqs5+vL8abUmyptZ+kf/8P8fzNPL+XVTTLOSP4+M0MzB7vj+/s6nPA9fLUv0l8+O2npN43N/g4pVuRaJOt3euc9zZj55DJ9ksV4cbe+OHzx88OnDe7v39g8+3bu3e//B6Sf3dkj1mRYkoe/4l+GW2mAzN32N0X09Ltu7mcv2fsRlt5qH/XsP///MZmZ4789nFKdkF/lmRtM2P+K020zF7sH+/585zQzvvTntSQ7XfwObcYMf8djNk3Dv4d7e3v9/ecwN77157FVGX25kMmnxtbjs/+88ZqdgZ3z//1fc1RtYh68kfDxbnlfp8+qimA55/PJ55v31tGhWZXb92UfcJKVPg+D3zVe///Hzl98+Dj/vvpSip5J7Yuxuhc5egI7+1YG8N4BO+Hn3pfdGx3gQHj7BZ50O7HdR3H7/45/8fBN6+vb7IinGRz6d2N8tbPm6i9CT0zfHcVzQ/nYohDG9fEZvkaS2HRxOzaddNE6fn35x+uLNAFWWlJlJ9d3U9XQLmqiy9KbN+6RDdv0mPmWvjt+cfblp0vjtLr06CamH/RRVVwI3Rlhd+djsJ/fYd7OzEzLSZqPVIfCQDvIZo5uS8PJslHW6zIoStgV/NvIia78fZeB+lIH7oXsQMiD+9EcZuP8Xz9Pt3e0fZeB+lIH7YXDZz5sM3Pvy2Y8ycN8wp/0oA/ejDNzPLo/9KAP3owzczwKP/SgD96MM3I8ycD/KwP0oA9dzdn7IGTiTZKNfu/k3k52zCS4zz33qH+GVx3cHv+6/ePTmyRe/P/7/9PT1yavIq+Ydj0MYYT+xRm28v7o5t4/SL+violhmZeeLg48McMnveWm2yMePzZv6N5lTStl1PnzcpZVnML5cnVRPqndfnr+uyjKvQW2bwBSJkC84/RhPbXoN0q1ptkyn1bLNimVKfaXyZcrZxztfJ/cZdN9PfEa+3pT/DJt3Ke8P/PRdmy9n+awzPppJRS+1U7t752c9gcoOQC+B2lEUuzt93XHWvKYpWRJZjs6zsiE58D4xjMG08dOEQ7xw/E6++v337v/+u+ne+H76vX/kb/q+/SXOH8fvINrKCOdVbX79oj+nIUtIO+Um4oug9xgzRBvczA53GUP2xSJMEZna49lPr5v2G5rbnffKjTOqTwtS1hf5chrLV3RbfC0f/x/5m/7/7uXTCI252XsvP39nvLOz+/9qPz8ytFtGkKe/aA0+vInFos1+xGc3TcbO/1+5bCfGYx1LFLFNon3JD6LPMkaAdddjVcv+F487Wm2Y02O8OYixb//ez6fsOwHv52G+/vKL3x///1nzMPcGPcyHP0ce5rPinZL6ZV2t8rq97nqaZdFu8jPpa3EaIm4mvvsAJ9P1HHExu19u9Ci8xl2yD7iX5o3AucSnP/tu5cNbuZW735BbyQyAgcWiDEzgbvq9xeL7+mMDE2zBi5zk1FdaLEnlU1/0S1ulmTAC97+REdDMOZb46/ff3Yk7lb0vb5r+yMz/v8uH/G4xQ+6hnx3mz7+WHV8s/v9ux2mENsvxPiv1ZMj/323H+wO7pbP47Rykj/CRfvHNMtL/X3jn/6+scwsX8NNIahMqZ5ARhZEGO9vovd3Ke4O6fk+/7fnvT//7WfPa7g15bXs7ca/tq+XbZXW1vJXrdrpYtdd93+1mKrE7/n50+vLlm9//5esvnz8//fp0Cv6EIspmxbqJsMO+MMSNAxGHhAxlipRw6rzBlN3A9xvhyzevfq/fn/45Pvm93psffOeT4qCcXJGZ+TslEfYYgjiCJNX74D4zQrawdLKvAwHv84DPmvDPDtvtDLEddf/BbBePGAZJ/ZQmZEqOjA2t3m9awHhPT9+cnrz58n1m5NYSOpi5v7f/4aT6yaKGo/ce1LKT7yLR/fcn2OvT3yv21gcTazAIVS7uEeRnPQi9YZlDc9I/lGWOUOw16RFJikfwk69vzmxHI1Gi/aaFDo2waS4jvHXvZz0mvXf/VjHpvW8oJr3VUsfez+lSx95NSx22wc0MsWGpg0Xy/01h6o+WOr6h8ONHSx0R7vrRUsfPJp/9vF7qiORL/7+81BFzA97PxfxmFju+sXDQDcgFhDbq+LCg8DWCwtdfLygM/UHimWyxKnOyphd5GBPuP+zEhPuypOPFfm8oKV787ISE2tkHxTnv7b+/nBdMiI6T9qoSoUnDLwOfjF7F16DszLS7lX9ugHvzEPPENjTz/TGB39x9ure9t3N/59P9u2dL0iHrBVy0nrPmYN0l/O8a/Ls+Gzgh6sr/bHvp+7dbOdp7Xy9dLBfptLzxtdat1BTT7AOyBq+Pv3j5/PQ9BPbrqaedG3JVPXZ9v5G8/PbZ69+f/3lv/eOY7uixb5F+EspkCmsV2CknKm9IRo9+n1VTlKB753P/AzuPYL6j/wewMv0Co1UAAA==

[PSD]
ActualTwoTheta=9999
FirstUsedChannel=0
FixedPSD=0
PSDOpening=4.98517
PSDType=5

[Drive]
DriveFlags=1
DriveName=2Theta
DriveNumber=2
DriveOffset=0
OffsetIndex=0
OscillationAmplitude=0
OscillationSpeed=0
StartPosition=9.99884

[Drive]
DriveFlags=1
DriveName=Theta
DriveNumber=1
DriveOffset=0
OffsetIndex=0
OscillationAmplitude=0
OscillationSpeed=0
StartPosition=4.99942

[Data]
     Angle,       PSD,
   9.99884,       134,
   10.0353,       142,
   10.0718,       132,
   10.1083,       139,
   10.1447,       128,
   10.1812,       142,
   10.2177,       165,
   10.2542,       161,
   10.2907,       142,
   10.3271,       136,
   10.3636,       140,
   10.4001,       151,
   10.4366,       141,
    10.473,       145,
   10.5095,       138,
    10.546,       133,
   10.5825,       146,
   10.6189,       156,
   10.6554,       144,
   10.6919,       146,
   10.7284,       126,
   10.7649,       119,
   10.8013,       144,
   10.8378,       133,
   10.8743,       159,
   10.9108,       145,
   10.9472,       148,
   10.9837,       127,
   11.0202,       123,
   11.0567,       122,
   11.0932,       154,
   11.1296,       130,
   11.1661,       145,
   11.2026,       167,
   11.2391,       132,
   11.2755,       138,
    11.312,       140,
   11.3485,       148,
    11.385,       148,
   11.4214,       137,
   11.4579,       138,
   11.4944,       123,
   11.5309,       144,
   11.5674,       145,
   11.6038,       148,
   11.6403,       149,
   11.6768,       116,
   11.7133,       121,
   11.7497,       166,
   11.7862,       155,
   11.8227,       144,
   11.8592,       134,
   11.8956,       128,
   11.9321,       150,
   11.9686,       151,
   12.0051,       127,
   12.0416,       132,
    12.078,       144,
   12.1145,       126,
    12.151,       140,
   12.1875,       121,
   12.2239,       156,
   12.2604,       124,
   12.2969,       141,
   12.3334,       155,
   12.3698,       156,
   12.4063,       146,
   12.4428,       107,
   12.4793,       134,
   12.5158,       146,
   12.5522,       162,
   12.5887,       161,
   12.6252,       142,
   12.6617,       149,
   12.6981,       160,
   12.7346,       139,
   12.7711,       144,
   12.8076,       135,
    12.844,       144,
   12.8805,       138,
    12.917,       139,
   12.9535,       147,
     12.99,       132,
   13.0264,       126,
   13.0629,       143,
   13.0994,       149,
   13.1359,       162,
   13.1723,       129,
   13.2088,       128,
   13.2453,       139,
   13.2818,       132,
   13.3182,       143,
   13.3547,       152,
   13.3912,       139,
   13.4277,       140,
   13.4642,       157,
   13.5006,       137,
   13.5371,       124,
   13.5736,       141,
   13.6101,       132,
   13.6465,       147,
    13.683,       144,
   13.7195,       138,
    13.756,       150,
   13.7924,       158,
   13.8289,       146,
   13.8654,       148,
   13.9019,       144,
   13.9384,       150,
   13.9748,       148,
   14.0113,       153,
   14.0478,       138,
   14.0843,       152,
   14.1207,       141,
   14.1572,       124,
   14.1937,       171,
   14.2302,       138,
   14.2666,       116,
   14.3031,       133,
   14.3396,       155,
   14.3761,       169,
   14.4126,       142,
    14.449,       143,
   14.4855,       173,
    14.522,       132,
   14.5585,       159,
   14.5949,       146,
   14.6314,       133,
   14.6679,       181,
   14.7044,       132,
   14.7409,       142,
   14.7773,       148,
   14.8138,       146,
   14.8503,       157,
   14.8868,       144,
   14.9232,       158,
   14.9597,       138,
   14.9962,       156,
   15.0327,       162,
   15.0691,       134,
   15.1056,       132,
   15.1421,       153,
   15.1786,       131,
   15.2151,       148,
   15.2515,       169,
    15.288,       142,
   15.3245,       163,
    15.361,       165,
   15.3974,       159,
   15.4339,       161,
   15.4704,       141,
   15.5069,       172,
   15.5433,       151,
   15.5798,       163,
   15.6163,       141,
   15.6528,       149,
   15.6893,       165,
   15.7257,       156,
   15.7622,       161,
   15.7987,       157,
   15.8352,       147,
   15.8716,       136,
   15.9081,       154,
   15.9446,       157,
   15.9811,       151,
   16.0175,       165,
    16.054,       155,
   16.0905,       150,
    16.127,       160,
   16.1635,       145,
   16.1999,       175,
   16.2364,       178,
   16.2729,       160,
   16.3094,       178,
   16.3458,       164,
   16.3823,       159,
   16.4188,       151,
   16.4553,       167,
   16.4917,       153,
   16.5282,       162,
   16.5647,       147,
   16.6012,       170,
   16.6377,       156,
   16.6741,       156,
   16.7106,       156,
   16.7471,       151,
   16.7836,       180,
     16.82,       178,
   16.8565,       176,
    16.893,       149,
   16.9295,       152,
   16.9659,       195,
   17.0024,       159,
   17.0389,       164,
   17.0754,       165,
   17.1119,       157,
   17.1483,       173,
   17.1848,       159,
   17.2213,       174,
   17.2578,       165,
   17.2942,       164,
   17.3307,       158,
   17.3672,       158,
   17.4037,       209,
   17.4401,       193,
   17.4766,       171,
   17.5131,       191,
   17.5496,       149,
   17.5861,       175,
   17.6225,       149,
    17.659,       171,
   17.6955,       185,
    17.732,       166,
   17.7684,       175,
   17.8049,       174,
   17.8414,       159,
   17.8779,       169,
   17.9143,       160,
   17.9508,       177,
   17.9873,       186,
   18.0238,       195,
   18.0603,       184,
   18.0967,       189,
   18.1332,       182,
   18.1697,       187,
   18.2062,       172,
   18.2426,       181,
   18.2791,       183,
   18.3156,       186,
   18.3521,       200,
   18.3886,       186,
    18.425,       192,
   18.4615,       201,
    18.498,       204,
   18.5345,       210,
   18.5709,       156,
   18.6074,       196,
   18.6439,       186,
   18.6804,       181,
   18.7168,       191,
   18.7533,       194,
   18.7898,       188,
   18.8263,       190,
   18.8628,       207,
   18.8992,       210,
   18.9357,       193,
   18.9722,       183,
   19.0087,       184,
   19.0451,       185,
   19.0816,       198,
   19.1181,       203,
   19.1546,       191,
    19.191,       207,
   19.2275,       194,
    19.264,       230,
   19.3005,       207,
    19.337,       174,
   19.3734,       186,
   19.4099,       191,
   19.4464,       205,
   19.4829,       208,
   19.5193,       209,
   19.5558,       191,
   19.5923,       205,
   19.6288,       190,
   19.6652,       200,
   19.7017,       185,
   19.7382,       207,
   19.7747,       202,
   19.8112,       188,
   19.8476,       234,
   19.8841,       218,
   19.9206,       208,
   19.9571,       197,
   19.9935,       228,
     20.03,       235,
   20.0665,       183,
    20.103,       212,
   20.1394,       184,
   20.1759,       203,
   20.2124,       225,
   20.2489,       218,
   20.2854,       236,
   20.3218,       203,
   20.3583,       230,
   20.3948,       198,
   20.4313,       219,
   20.4677,       198,
   20.5042,       209,
   20.5407,       213,
   20.5772,       221,
   20.6136,       224,
   20.6501,       216,
   20.6866,       222,
   20.7231,       207,
   20.7596,       203,
    20.796,       242,
   20.8325,       256,
    20.869,       234,
   20.9055,       236,
   20.9419,       216,
   20.9784,       200,
   21.0149,       197,
   21.0514,       214,
   21.0878,       229,
   21.1243,       230,
   21.1608,       260,
   21.1973,       208,
   21.2338,       240,
   21.2702,       219,
   21.3067,       213,
   21.3432,       258,
   21.3797,       233,
   21.4161,       231,
   21.4526,       235,
   21.4891,       250,
   21.5256,       248,
    21.562,       240,
   21.5985,       233,
    21.635,       231,
   21.6715,       269,
    21.708,       227,
   21.7444,       235,
   21.7809,       241,
   21.8174,       260,
   21.8539,       218,
   21.8903,       244,
   21.9268,       279,
   21.9633,       262,
   21.9998,       218,
   22.0363,       265,
   22.0727,       247,
   22.1092,       252,
   22.1457,       245,
   22.1822,       261,
   22.2186,       267,
   22.2551,       203,
   22.2916,       240,
   22.3281,       230,
   22.3645,       246,
    22.401,       244,
   22.4375,       238,
    22.474,       237,
   22.5105,       239,
   22.5469,       251,
   22.5834,       245,
   22.6199,       226,
   22.6564,       210,
   22.6928,       245,
   22.7293,       225,
   22.7658,       237,
   22.8023,       224,
   22.8387,       246,
   22.8752,       228,
   22.9117,       226,
   22.9482,       253,
   22.9847,       219,
   23.0211,       222,
   23.0576,       254,
   23.0941,       272,
   23.1306,       240,
    23.167,       238,
   23.2035,       269,
     23.24,       240,
   23.2765,       273,
   23.3129,       249,
   23.3494,       254,
   23.3859,       255,
   23.4224,       260,
   23.4589,       220,
   23.4953,       243,
   23.5318,       252,
   23.5683,       229,
   23.6048,       255,
   23.6412,       235,
   23.6777,       230,
   23.7142,       242,
   23.7507,       252,
   23.7871,       223,
   23.8236,       238,
   23.8601,       241,
   23.8966,       274,
   23.9331,       259,
   23.9695,       246,
    24.006,       255,
   24.0425,       261,
    24.079,       256,
   24.1154,       241,
   24.1519,       253,
   24.1884,       280,
   24.2249,       243,
   24.2613,       240,
   24.2978,       246,
   24.3343,       277,
   24.3708,       238,
   24.4073,       246,
   24.4437,       257,
   24.4802,       248,
   24.5167,       232,
   24.5532,       257,
   24.5896,       235,
   24.6261,       265,
   24.6626,       230,
   24.6991,       261,
   24.7355,       250,
    24.772,       247,
   24.8085,       247,
    24.845,       244,
   24.8815,       216,
   24.9179,       255,
   24.9544,       266,
   24.9909,       253,
   25.0274,       252,
   25.0638,       243,
   25.1003,       262,
   25.1368,       239,
   25.1733,       243,
   25.2097,       256,
   25.2462,       244,
   25.2827,       223,
   25.3192,       247,
   25.3557,       255,
   25.3921,       240,
   25.4286,       233,
   25.4651,       239,
   25.5016,       257,
    25.538,       222,
   25.5745,       248,
    25.611,       251,
   25.6475,       257,
    25.684,       272,
   25.7204,       230,
   25.7569,       229,
   25.7934,       258,
   25.8299,       206,
   25.8663,       263,
   25.9028,       259,
   25.9393,       256,
   25.9758,       230,
   26.0122,       231,
   26.0487,       275,
   26.0852,       235,
   26.1217,       249,
   26.1582,       252,
   26.1946,       267,
   26.2311,       287,
   26.2676,       269,
   26.3041,       260,
   26.3405,       266,
    26.377,       285,
   26.4135,       260,
     26.45,       260,
   26.4864,       230,
   26.5229,       238,
   26.5594,       262,
   26.5959,       241,
   26.6324,       258,
   26.6688,       286,
   26.7053,       265,
   26.7418,       292,
   26.7783,       285,
   26.8147,       271,
   26.8512,       276,
   26.8877,       231,
   26.9242,       258,
   26.9606,       258,
   26.9971,       267,
   27.0336,       234,
   27.0701,       242,
   27.1066,       254,
    27.143,       230,
   27.1795,       260,
    27.216,       242,
   27.2525,       253,
   27.2889,       235,
   27.3254,       225,
   27.3619,       247,
   27.3984,       227,
   27.4348,       220,
   27.4713,       217,
   27.5078,       229,
   27.5443,       245,
   27.5808,       216,
   27.6172,       246,
   27.6537,       227,
   27.6902,       236,
   27.7267,       227,
   27.7631,       244,
   27.7996,       194,
   27.8361,       221,
   27.8726,       235,
    27.909,       186,
   27.9455,       205,
    27.982,       218,
   28.0185,       219,
    28.055,       224,
   28.0914,       226,
   28.1279,       241,
   28.1644,       217,
   28.2009,       200,
   28.2373,       230,
   28.2738,       212,
   28.3103,       232,
   28.3468,       194,
   28.3832,       223,
   28.4197,       192,
   28.4562,       224,
   28.4927,       220,
   28.5292,       201,
   28.5656,       218,
   28.6021,       260,
   28.6386,       207,
   28.6751,       217,
   28.7115,       238,
    28.748,       183,
   28.7845,       208,
    28.821,       223,
   28.8574,       210,
   28.8939,       180,
   28.9304,       210,
   28.9669,       222,
   29.0034,       207,
   29.0398,       222,
   29.0763,       153,
   29.1128,       217,
   29.1493,       188,
   29.1857,       178,
   29.2222,       202,
   29.2587,       219,
   29.2952,       174,
   29.3317,       198,
   29.3681,       192,
   29.4046,       212,
   29.4411,       199,
   29.4776,       214,
    29.514,       211,
   29.5505,       174,
    29.587,       201,
   29.6235,       195,
   29.6599,       216,
   29.6964,       247,
   29.7329,       232,
   29.7694,       219,
   29.8059,       194,
   29.8423,       210,
   29.8788,       193,
   29.9153,       226,
   29.9518,       209,
   29.9882,       194,
   30.0247,       193,
   30.0612,       211,
   30.0977,       207,
   30.1341,       231,
   30.1706,       243,
   30.2071,       224,
   30.2436,       227,
   30.2801,       230,
   30.3165,       214,
    30.353,       192,
   30.3895,       214,
    30.426,       234,
   30.4624,       235,
   30.4989,       215,
   30.5354,       237,
   30.5719,       234,
   30.6083,       198,
   30.6448,       251,
   30.6813,       243,
   30.7178,       243,
   30.7543,       229,
   30.7907,       235,
   30.8272,       252,
   30.8637,       261,
   30.9002,       247,
   30.9366,       214,
   30.9731,       237,
   31.0096,       267,
   31.0461,       244,
   31.0825,       264,
    31.119,       219,
   31.1555,       234,
    31.192,       234,
   31.2285,       241,
   31.2649,       185,
   31.3014,       213,
   31.3379,       209,
   31.3744,       186,
   31.4108,       231,
   31.4473,       210,
   31.4838,       208,
   31.5203,       222,
   31.5567,       205,
   31.5932,       192,
   31.6297,       185,
   31.6662,       194,
   31.7027,       173,
   31.7391,       198,
   31.7756,       202,
   31.8121,       183,
   31.8486,       171,
    31.885,       184,
   31.9215,       183,
    31.958,       164,
   31.9945,       195,
   32.0309,       175,
   32.0674,       183,
   32.1039,       176,
   32.1404,       162,
   32.1769,       188,
   32.2133,       177,
   32.2498,       182,
   32.2863,       179,
   32.3228,       166,
   32.3592,       182,
   32.3957,       167,
   32.4322,       165,
   32.4687,       171,
   32.5051,       160,
   32.5416,       156,
   32.5781,       156,
   32.6146,       163,
   32.6511,       171,
   32.6875,       171,
    32.724,       167,
   32.7605,       166,
    32.797,       145,
   32.8334,       175,
   32.8699,       157,
   32.9064,       141,
   32.9429,       152,
   32.9794,       156,
   33.0158,       157,
   33.0523,       155,
   33.0888,       146,
   33.1253,       141,
   33.1617,       166,
   33.1982,       165,
   33.2347,       136,
   33.2712,       170,
   33.3076,       171,
   33.3441,       136,
   33.3806,       161,
   33.4171,       150,
   33.4536,       136,
     33.49,       142,
   33.5265,       155,
    33.563,       152,
   33.5995,       145,
   33.6359,       157,
   33.6724,       147,
   33.7089,       165,
   33.7454,       150,
   33.7818,       161,
   33.8183,       174,
   33.8548,       168,
   33.8913,       145,
   33.9278,       148,
   33.9642,       190,
   34.0007,       141,
   34.0372,       141,
   34.0737,       163,
   34.1101,       155,
   34.1466,       155,
   34.1831,       156,
   34.2196,       137,
    34.256,       147,
   34.2925,       127,
    34.329,       156,
   34.3655,       144,
    34.402,       141,
   34.4384,       152,
   34.4749,       153,
   34.5114,       137,
   34.5479,       158,
   34.5843,       121,
   34.6208,       145,
   34.6573,       132,
   34.6938,       137,
   34.7302,       155,
   34.7667,       140,
   34.8032,       136,
   34.8397,       150,
   34.8762,       141,
   34.9126,       159,
   34.9491,       128,
   34.9856,       120,
   35.0221,       131,
   35.0585,       144,
    35.095,       137,
   35.1315,       135,
    35.168,       133,
   35.2044,       128,
   35.2409,       136,
   35.2774,       146,
   35.3139,       155,
   35.3504,       129,
   35.3868,       116,
   35.4233,       124,
   35.4598,       142,
   35.4963,       116,
   35.5327,       139,
   35.5692,       146,
   35.6057,       148,
   35.6422,       126,
   35.6786,       128,
   35.7151,       142,
   35.7516,       137,
   35.7881,       123,
   35.8246,       114,
    35.861,       130,
   35.8975,       121,
    35.934,       135,
   35.9705,       136,
   36.0069,       128,
   36.0434,       145,
   36.0799,       120,
   36.1164,       144,
   36.1528,       133,
   36.1893,       113,
   36.2258,       126,
   36.2623,       111,
   36.2988,       123,
   36.3352,       144,
   36.3717,       132,
   36.4082,       106,
   36.4447,       129,
   36.4811,       115,
   36.5176,       112,
   36.5541,       141,
   36.5906,       123,
   36.6271,       134,
   36.6635,       144,
      36.7,       116,
   36.7365,       121,
    36.773,       101,
   36.8094,       109,
   36.8459,       123,
   36.8824,       116,
   36.9189,       122,
   36.9553,       106,
   36.9918,       118,
   37.0283,       114,
   37.0648,       129,
   37.1013,       128,
   37.1377,       127,
   37.1742,       123,
   37.2107,       123,
   37.2472,       123,
   37.2836,       121,
   37.3201,       113,
   37.3566,       121,
   37.3931,       119,
   37.4295,       118,
    37.466,       130,
   37.5025,       117,
    37.539,       135,
   37.5755,       106,
   37.6119,       104,
   37.6484,       108,
   37.6849,       132,
   37.7214,       120,
   37.7578,       122,
   37.7943,       111,
   37.8308,       113,
   37.8673,       113,
   37.9037,       112,
   37.9402,       114,
   37.9767,       106,
   38.0132,       136,
   38.0497,       110,
   38.0861,       115,
   38.1226,       101,
   38.1591,       105,
   38.1956,       111,
    38.232,       106,
   38.2685,       121,
    38.305,        89,
   38.3415,       103,
   38.3779,        99,
   38.4144,       117,
   38.4509,       125,
   38.4874,        83,
   38.5239,       115,
   38.5603,        97,
   38.5968,       105,
   38.6333,        98,
   38.6698,        93,
   38.7062,       112,
   38.7427,       123,
   38.7792,       107,
   38.8157,       105,
   38.8521,       113,
   38.8886,       109,
   38.9251,       103,
   38.9616,        95,
   38.9981,        93,
   39.0345,        98,
    39.071,       123,
   39.1075,       109,
    39.144,       110,
   39.1804,       105,
   39.2169,       115,
   39.2534,        99,
   39.2899,       104,
   39.3263,        99,
   39.3628,        87,
   39.3993,       106,
   39.4358,       113,
   39.4723,       100,
   39.5087,       118,
   39.5452,        96,
   39.5817,       100,
   39.6182,        99,
   39.6546,        98,
   39.6911,       103,
   39.7276,       116,
   39.7641,        85,
   39.8005,        97,
    39.837,       103,
   39.8735,       114,
     39.91,       112,
   39.9465,        97,
   39.9829,       114,
   40.0194,       110,
   40.0559,        97,
   40.0924,       119,
   40.1288,       115,
   40.1653,       130,
   40.2018,        94,
   40.2383,        92,
   40.2748,       120,
   40.3112,       103,
   40.3477,       113,
   40.3842,       119,
   40.4207,       116,
   40.4571,       111,
   40.4936,       104,
   40.5301,       104,
   40.5666,       111,
    40.603,       108,
   40.6395,       105,
    40.676,       107,
   40.7125,       134,
    40.749,        82,
   40.7854,       104,
   40.8219,       121,
   40.8584,       140,
   40.8949,       104,
   40.9313,       107,
   40.9678,       125,
   41.0043,        91,
   41.0408,        98,
   41.0772,       109,
   41.1137,        95,
   41.1502,       109,
   41.1867,       113,
   41.2232,       119,
   41.2596,        97,
   41.2961,       113,
   41.3326,        89,
   41.3691,       112,
   41.4055,        96,
    41.442,       117,
   41.4785,        81,
    41.515,       130,
   41.5514,        99,
   41.5879,        88,
   41.6244,       109,
   41.6609,       103,
   41.6974,       100,
   41.7338,        94,
   41.7703,       121,
   41.8068,       115,
   41.8433,       101,
   41.8797,       121,
   41.9162,       113,
   41.9527,       108,
   41.9892,       105,
   42.0256,       109,
   42.0621,       119,
   42.0986,        93,
   42.1351,       104,
   42.1716,       112,
    42.208,       111,
   42.2445,       100,
    42.281,       115,
   42.3175,        99,
   42.3539,       104,
   42.3904,       104,
   42.4269,        99,
   42.4634,       105,
   42.4998,       113,
   42.5363,       102,
   42.5728,       108,
   42.6093,        97,
   42.6458,       104,
   42.6822,       109,
   42.7187,       118,
   42.7552,        96,
   42.7917,       107,
   42.8281,       108,
   42.8646,       123,
   42.9011,       110,
   42.9376,        82,
    42.974,       111,
   43.0105,       113,
    43.047,       115,
   43.0835,       114,
     43.12,       106,
   43.1564,        95,
   43.1929,       102,
   43.2294,        95,
   43.2659,       105,
   43.3023,       130,
   43.3388,       109,
   43.3753,       110,
   43.4118,       125,
   43.4482,       114,
   43.4847,       102,
   43.5212,       114,
   43.5577,       106,
   43.5942,       105,
   43.6306,       121,
   43.6671,       139,
   43.7036,       130,
   43.7401,       116,
   43.7765,       117,
    43.813,       127,
   43.8495,       100,
    43.886,       103,
   43.9225,       110,
   43.9589,       115,
   43.9954,       112,
   44.0319,       136,
   44.0684,       133,
   44.1048,       134,
   44.1413,       131,
   44.1778,       130,
   44.2143,       116,
   44.2507,       112,
   44.2872,       102,
   44.3237,       117,
   44.3602,       106,
   44.3967,       129,
   44.4331,       128,
   44.4696,       110,
   44.5061,       136,
   44.5426,       119,
    44.579,       118,
   44.6155,       121,
    44.652,       140,
   44.6885,       125,
   44.7249,       115,
   44.7614,        99,
   44.7979,       100,
   44.8344,       109,
   44.8709,       108,
   44.9073,       102,
   44.9438,       107,
   44.9803,       115,
   45.0168,        87,
   45.0532,       110,
   45.0897,       113,
   45.1262,       106,
   45.1627,       113,
   45.1991,        92,
   45.2356,       101,
   45.2721,        94,
   45.3086,        93,
   45.3451,       119,
   45.3815,        96,
    45.418,        85,
   45.4545,       119,
    45.491,        90,
   45.5274,        96,
   45.5639,       118,
   45.6004,        85,
   45.6369,        97,
   45.6733,        96,
   45.7098,       101,
   45.7463,       116,
   45.7828,        90,
   45.8193,        90,
   45.8557,        86,
   45.8922,       113,
   45.9287,       110,
   45.9652,       112,
   46.0016,        92,
   46.0381,       107,
   46.0746,       117,
   46.1111,        92,
   46.1475,       113,
    46.184,        96,
   46.2205,       107,
    46.257,       113,
   46.2935,       117,
   46.3299,       103,
   46.3664,        82,
   46.4029,       101,
   46.4394,        92,
   46.4758,        94,
   46.5123,        95,
   46.5488,       105,
   46.5853,       111,
   46.6217,        93,
   46.6582,       112,
   46.6947,        96,
   46.7312,       108,
   46.7677,        79,
   46.8041,       109,
   46.8406,        97,
   46.8771,        77,
   46.9136,        86,
     46.95,        95,
   46.9865,       108,
    47.023,       104,
   47.0595,       108,
   47.0959,       111,
   47.1324,       105,
   47.1689,        93,
   47.2054,        94,
   47.2419,        96,
   47.2783,        91,
   47.3148,       119,
   47.3513,        88,
   47.3878,        92,
   47.4242,        90,
   47.4607,        99,
   47.4972,       103,
   47.5337,        93,
   47.5702,        99,
   47.6066,        96,
   47.6431,        98,
   47.6796,       103,
   47.7161,       106,
   47.7525,        91,
    47.789,       102,
   47.8255,        83,
    47.862,        92,
   47.8984,       100,
   47.9349,        76,
   47.9714,        93,
   48.0079,       100,
   48.0444,        85,
   48.0808,       100,
   48.1173,        74,
   48.1538,        98,
   48.1903,        91,
   48.2267,        79,
   48.2632,       109,
   48.2997,        91,
   48.3362,        94,
   48.3726,       108,
   48.4091,        98,
   48.4456,        86,
   48.4821,       112,
   48.5186,        89,
    48.555,       103,
   48.5915,        84,
    48.628,        91,
   48.6645,       105,
   48.7009,        80,
   48.7374,       106,
   48.7739,        98,
   48.8104,       100,
   48.8468,        84,
   48.8833,        93,
   48.9198,        93,
   48.9563,        76,
   48.9928,        93,
   49.0292,        78,
   49.0657,        96,
   49.1022,       102,
   49.1387,        98,
   49.1751,        85,
   49.2116,        90,
   49.2481,        77,
   49.2846,       105,
    49.321,       101,
   49.3575,        92,
    49.394,        91,
   49.4305,        85,
    49.467,        97,
   49.5034,       100,
   49.5399,       103,
   49.5764,        95,
   49.6129,        73,
   49.6493,        91,
   49.6858,        91,
   49.7223,        94,
   49.7588,        83,
   49.7952,        78,
   49.8317,        88,
   49.8682,        85,
   49.9047,       101,
   49.9412,        91,
   49.9776,       100,
   50.0141,       100,
   50.0506,        96,
   50.0871,       108,
   50.1235,        94,
     50.16,        88,
   50.1965,       103,
    50.233,       106,
   50.2694,        95,
   50.3059,        83,
   50.3424,       104,
   50.3789,        85,
   50.4154,        97,
   50.4518,        94,
   50.4883,        69,
   50.5248,        97,
   50.5613,        98,
   50.5977,       110,
   50.6342,        88,
   50.6707,       103,
   50.7072,        91,
   50.7436,        81,
   50.7801,       107,
   50.8166,        81,
   50.8531,        97,
   50.8896,        90,
    50.926,        93,
   50.9625,        90,
    50.999,        98,
   51.0355,        99,
   51.0719,       109,
   51.1084,       106,
   51.1449,        91,
   51.1814,        93,
   51.2179,        92,
   51.2543,        93,
   51.2908,        91,
   51.3273,        92,
   51.3638,        84,
   51.4002,        88,
   51.4367,        85,
   51.4732,        78,
   51.5097,        85,
   51.5461,        90,
   51.5826,        99,
   51.6191,       106,
   51.6556,       103,
   51.6921,       102,
   51.7285,        95,
    51.765,        78,
   51.8015,        92,
    51.838,        98,
   51.8744,        95,
   51.9109,        95,
   51.9474,       103,
   51.9839,       103,
   52.0203,        91,
   52.0568,       108,
   52.0933,        90,
   52.1298,        87,
   52.1663,        92,
   52.2027,       101,
   52.2392,        91,
   52.2757,        97,
   52.3122,        95,
   52.3486,        85,
   52.3851,        91,
   52.4216,       100,
   52.4581,       105,
   52.4945,        92,
    52.531,        86,
   52.5675,       107,
    52.604,        97,
   52.6405,       106,
   52.6769,        88,
   52.7134,        97,
   52.7499,       102,
   52.7864,        92,
   52.8228,        92,
   52.8593,        99,
   52.8958,        85,
   52.9323,       110,
   52.9687,        86,
   53.0052,        72,
   53.0417,        73,
   53.0782,        96,
   53.1147,        88,
   53.1511,        85,
   53.1876,        97,
   53.2241,        73,
   53.2606,        72,
    53.297,        91,
   53.3335,        90,
     53.37,        91,
   53.4065,        87,
   53.4429,        87,
   53.4794,       101,
   53.5159,        98,
   53.5524,        86,
   53.5889,        95,
   53.6253,        85,
   53.6618,        91,
   53.6983,        81,
   53.7348,        81,
   53.7712,        86,
   53.8077,        82,
   53.8442,        78,
   53.8807,        93,
   53.9171,        97,
   53.9536,       102,
   53.9901,       102,
   54.0266,        86,
   54.0631,        97,
   54.0995,        90,
    54.136,       104,
   54.1725,        84,
    54.209,        80,
   54.2454,        89,
   54.2819,       105,
   54.3184,        96,
   54.3549,        92,
   54.3913,        97,
   54.4278,        83,
   54.4643,        82,
   54.5008,       111,
   54.5373,        98,
   54.5737,        89,
   54.6102,       107,
   54.6467,       101,
   54.6832,        87,
   54.7196,        83,
   54.7561,       101,
   54.7926,       101,
   54.8291,       105,
   54.8656,        96,
    54.902,       103,
   54.9385,        99,
    54.975,       114,
   55.0115,       112,
   55.0479,        97,
   55.0844,        83,
   55.1209,        81,
   55.1574,        92,
   55.1938,        90,
   55.2303,        84,
   55.2668,        84,
   55.3033,       106,
   55.3398,        70,
   55.3762,        94,
   55.4127,       104,
   55.4492,       109,
   55.4857,        93,
   55.5221,        80,
   55.5586,       126,
   55.5951,        97,
   55.6316,        67,
    55.668,        94,
   55.7045,        92,
    55.741,        76,
   55.7775,        91,
    55.814,        77,
   55.8504,        87,
   55.8869,        88,
   55.9234,        89,
   55.9599,        77,
   55.9963,        96,
   56.0328,        88,
   56.0693,       103,
   56.1058,        93,
   56.1422,       102,
   56.1787,       103,
   56.2152,        75,
   56.2517,        91,
   56.2882,        73,
   56.3246,        76,
   56.3611,        89,
   56.3976,        77,
   56.4341,        96,
   56.4705,        93,
    56.507,        93,
   56.5435,        81,
     56.58,        96,
   56.6164,        73,
   56.6529,       100,
   56.6894,        77,
   56.7259,        97,
   56.7624,        96,
   56.7988,        84,
   56.8353,       101,
   56.8718,        79,
   56.9083,        87,
   56.9447,        81,
   56.9812,        65,
   57.0177,        83,
   57.0542,        82,
   57.0906,        92,
   57.1271,        80,
   57.1636,        94,
   57.2001,        79,
   57.2366,        97,
    57.273,        83,
   57.3095,        94,
    57.346,        82,
   57.3825,        95,
   57.4189,        94,
   57.4554,        86,
   57.4919,        80,
   57.5284,        72,
   57.5648,        91,
   57.6013,        93,
   57.6378,        98,
   57.6743,        75,
   57.7108,        81,
   57.7472,        99,
   57.7837,        85,
   57.8202,        78,
   57.8567,        95,
   57.8931,        84,
   57.9296,        74,
   57.9661,        89,
   58.0026,        84,
    58.039,        76,
   58.0755,        85,
    58.112,        74,
   58.1485,        90,
    58.185,       103,
   58.2214,        81,
   58.2579,        78,
   58.2944,        92,
   58.3309,        80,
   58.3673,        89,
   58.4038,       100,
   58.4403,        92,
   58.4768,        99,
   58.5133,        92,
   58.5497,        93,
   58.5862,        77,
   58.6227,        83,
   58.6592,        84,
   58.6956,        72,
   58.7321,        80,
   58.7686,        65,
   58.8051,        89,
   58.8415,        95,
    58.878,        65,
   58.9145,        84,
    58.951,        97,
   58.9875,        95,
   59.0239,        91,
   59.0604,        85,
   59.0969,        91,
   59.1334,        83,
   59.1698,        82,
   59.2063,        82,
   59.2428,        95,
   59.2793,        77,
   59.3157,        72,
   59.3522,        94,
   59.3887,        94,
   59.4252,        98,
   59.4617,        97,
   59.4981,       103,
   59.5346,        71,
   59.5711,        74,
   59.6076,        80,
    59.644,        82,
   59.6805,        82,
    59.717,        91,
   59.7535,        76,
   59.7899,        77,
   59.8264,       102,
   59.8629,        91,
   59.8994,        88,
   59.9359,        77,
   59.9723,        80,
   60.0088,        90,
